sqi_full,sqi_per,acc_sd,tmpl_corr_mean,reject_frac,rr_diff_max_rel,skewness,spec_purity,logistic,gbm,gbm_no_rmssd,oracle,subject,t0
0.0,0.0,-0.0113878318832235,0.5390456529696465,-0.6470588235294117,-0.578125,-0.4526719560250773,0.3463437680865965,1.7643429444718163e-06,-4.5006632064512555,-4.501395419444328,-105.30970635810803,an0,10.0
0.0,0.0,-0.0074483133126274,0.580107208453649,-0.7380952380952381,-0.1296296296296296,-0.9587637451881674,0.2844811116444632,0.021278834022411004,-2.9388515647460896,-3.090444244487635,-20.916123119054745,an0,70.0
0.0,0.0,-0.0051592408791311,0.5098265324014657,-0.5,-0.4833333333333333,0.9801964418788862,0.3566458397117716,0.0010966150977819921,-4.044191418180426,-4.2480037657071765,-69.33228838881179,an0,130.0
0.0,0.0,-0.0053391378644378,0.4664034537584545,-0.52,-0.4360902255639097,-1.5602920849475008,0.3670501163467571,0.002697790913025038,-4.584834827201162,-4.56596437977595,-115.79489215150323,an0,190.0
0.0,0.0,-0.0053326686654219,0.4807604101759894,-0.7045454545454546,-0.1724137931034483,-0.1933032601855332,0.6403824211337391,0.012379341942106723,-3.2406686196396857,-3.3760061314260987,-30.87736667431275,an0,250.0
0.0,0.0,-0.1013267166324308,0.5915364622607553,-0.6037735849056604,-0.3582089552238806,0.3375045416149274,0.2074346224319243,0.0007851599237875774,-4.33566932000442,-4.351090789707277,-79.78052518108936,an0,310.0
0.0,0.0,-0.0504706644060198,0.4760262074247455,-0.4912280701754385,-0.3770491803278688,2.0581844217007217,0.5053149501659799,0.002021274780670877,-3.994660190891255,-3.8714143207515948,-73.1499403733167,an0,370.0
0.0,0.0,-0.0119526591306523,0.5120657003566945,-0.3908045977011494,-0.5606060606060606,0.0147084045174893,0.2380067481788203,0.00039218819602452297,-4.5655384535955035,-4.494188964265965,-103.12051460328897,an0,430.0
0.0,0.0,-0.0146425732256043,0.5380729073954846,-0.4285714285714286,-0.4251968503937008,-0.1189511126548895,0.1783537374111283,0.006421586262964553,-4.158618576136691,-4.344490841969852,-67.14462172348777,an0,490.0
0.0,0.0,-0.0370957784092636,0.4646051394895983,-0.6764705882352942,-0.3103448275862069,0.1436546131463116,0.2176723877492666,0.00020494916159139503,-3.5608957449337657,-3.580383150506541,-31.019144189277444,an0,550.0
0.0,0.0,-0.0208743020552932,0.4939693170835286,-0.4736842105263158,-0.432,-0.3141921913258627,0.4357105122842155,0.0026673845652699533,-4.150930097890847,-4.340888886567253,-69.13943054372402,an0,610.0
0.0,0.0,-0.0133277579001023,0.477295176937989,-0.4459459459459459,-0.4477611940298507,-7.858553958874112,0.2464594140204986,0.0017564622059929986,-4.450357844591521,-4.258161276192029,-85.03188991917952,an0,670.0
0.0,0.0,-0.0153837454854832,0.5263985469901238,-0.53125,-0.3880597014925373,3.052628932641759,0.2271650148321483,0.008788014175493361,-4.3188223072519945,-4.143447453465692,-81.30572797163103,an0,730.0
0.0,0.0,-0.0076134814283385,0.4854586274716362,-0.5957446808510638,-0.3692307692307692,-0.0833634217695407,0.5361462807696443,0.0049301612373087635,-4.218460099584441,-4.249461511613165,-74.8875334291494,an0,790.0
0.0,0.0,-0.0111460894915969,0.5760037142118772,-0.4925373134328358,-0.3076923076923077,0.648689639415793,0.5233952213559676,0.001969384023176037,-3.585452258521582,-3.435732109707849,-38.26651385780034,an0,850.0
0.0,0.0,-0.0124537060960254,0.4933306637579217,-0.5652173913043479,-0.3770491803278688,-1.239699613753177,0.5622905613422217,0.0023297125740661846,-3.849071799598602,-4.0556182175060735,-54.384645665780745,an0,910.0
0.0,0.0,-0.0442635631998075,0.5281471224663441,-0.4931506849315068,-0.5,0.3517158374021699,0.3198905678193279,0.0002900806826699773,-4.539747853509069,-4.389987928526098,-95.50158627659047,an0,970.0
0.0,0.9242532320223464,-0.1577699660440381,0.6495202079138251,-0.9130434782608696,-1.7702702702702702,-1.1664245610688928,0.426302504547889,0.00023572667028404,-4.7877659773462415,-4.914602119113001,,an0,1030.0
0.4777703724677619,0.9262478928623652,-0.035447584259228,0.7050068809448173,-0.7647058823529411,-0.3823529411764705,-2.5657119103499695,0.3522419079490329,5.370765538472666e-05,-4.640899526402661,-4.520003864058047,,an0,1090.0
0.9554558845240272,0.925759807540045,-0.0203248969833106,0.7731385594664119,-0.9210526315789472,-0.2394366197183098,0.0966944481071256,0.4641585817203393,0.0001874472586463457,-4.389004723424183,-4.236717739436576,,an0,1150.0
0.9556314302137916,0.92634495983926,-0.0296184032743839,0.8776703433207185,-0.8863636363636364,-0.3,0.8119899263192437,0.3879857721210957,0.00022760366366630607,-4.6081748969947,-4.5952732032142025,,an0,1210.0
0.9371958046302392,0.8953803452541282,-0.0868142650703081,0.7272290300703802,-0.6153846153846154,-0.3917525773195876,-0.9126717876279964,0.3657379452717911,5.183022078328453e-06,-4.944305156978892,-4.896250489833614,-142.60820054521318,an0,1270.0
0.4692530481089494,0.8972325725994256,-0.0212747920463411,0.5799293869641462,-0.7297297297297297,-0.2751322751322751,0.06625899610259,0.3982262024843206,6.755400634891762e-05,-4.467206218340263,-4.5061975953265785,-100.02160807806494,an0,1330.0
0.0,0.8948955107075622,-0.090505306980073,0.7741347461769026,-0.72,-0.4271844660194174,0.1152904538446417,0.4466795199824678,1.467740792567101e-05,-5.12583603785696,-5.2011891570046025,,an0,1390.0
0.9438443412483848,0.9064072354139744,-0.052470755896072,0.7955219838760762,-0.4117647058823529,-0.44,-0.0576129454791836,0.4857909162553023,7.3901254360854454e-06,-4.6419596319178575,-4.663759909173818,-113.92319911696461,an0,1450.0
0.9618684294508022,0.9364473824180036,-0.025107614730338,0.8627656278046273,-0.2444444444444444,-0.4434389140271493,-0.8692023657839211,0.3878532710204326,6.180981825600413e-06,-4.504548125143759,-4.56782174148092,-102.20317177297902,an0,1510.0
0.9694278130658492,0.949338424194582,-0.0318572576003901,0.8897340631751105,-0.1999999999999999,-0.4051724137931034,4.718542661846078,0.4838603311803682,0.0003045664455927631,-4.398070146629448,-4.366308073485465,-92.26314004720567,an0,1570.0
0.9745844170083804,0.9576406950139672,-0.0153946210704507,0.9282034723365092,-0.078125,-0.3928571428571428,0.188614355529273,0.8022627487505899,0.0004768054276867492,-4.532224865658239,-4.345254517528932,-103.7325373993261,an0,1630.0
0.9744528019137368,0.9574213365228944,-0.010354716780379,0.8826350333268259,-0.2142857142857143,-0.3231441048034934,-0.2714487219205123,0.5305443155270388,0.0007378274644632109,-4.332797971970012,-4.219353635329181,-90.00997896500286,an0,1690.0
0.9744173749605256,0.9575559702612536,-0.0692592527478348,0.6928323618132187,-0.6756756756756757,-0.1255605381165919,-2.1114047096799307,0.391443910669605,0.001058863218507979,-3.4925713663856075,-3.746917339491243,-37.167476680874906,an0,1750.0
0.4850662788433306,0.952116595625236,-0.0860437213400574,0.7455016226116955,-0.78125,-0.3203125,-1.0030911517951715,0.4389705817932279,6.400494588061865e-05,-5.036122624634116,-4.969771822154536,,an0,1810.0
0.4833010716415268,0.9443369054717562,-0.0621033781956032,0.6867151691433145,-0.7241379310344828,-0.3771929824561403,-0.5030287555256865,0.3520949306461954,2.423075778125526e-06,-5.065302238031601,-5.013329356815052,,an0,1870.0
0.4806101404033633,0.935301992833617,-0.0602329722476885,0.6548661928407068,-0.6060606060606061,-0.5544554455445545,-0.6239586532783375,0.2295349649392072,1.061306105177992e-07,-5.266488663049047,-5.2673908634068765,-209.03616136461267,an0,1930.0
0.9540809078616518,0.927136826228903,-0.0425482126262339,0.7635181983376055,-0.5476190476190477,-0.4403669724770642,0.0485448484493366,0.3750385304269744,6.303742559707518e-06,-5.067141243071376,-5.034981185963916,-160.65230965543782,an0,1990.0
0.9531010460842088,0.9218350768070148,-0.0237273723759504,0.7721936654958008,-0.4651162790697675,-0.3243243243243243,-1.0198985985864677,0.3646926227040932,0.00010683905401847333,-4.561177912423116,-4.489060191179947,-100.86190481413419,an0,2050.0
0.960716721464856,0.9358034277999668,-0.0231045897703641,0.6809158193159794,-0.6086956521739131,-0.4372093023255814,0.0993037199347338,0.4149603382800657,1.6942291798676416e-05,-5.013465007083655,-5.039655187680137,-151.96843698324994,an0,2110.0
0.4776469485439684,0.9249579535191396,-0.1675898211480435,0.7496329907204081,-0.6590909090909092,-0.375,-0.2028568901255512,0.3233696837584984,2.0023946455245947e-05,-4.848375574085561,-4.882818091223436,-154.23028240347278,an0,2170.0
0.4736078297059375,0.91126014615033,-0.2336896651827059,0.5938433659080822,-0.74,-0.3677419354838709,-1.3034929603352805,0.4790436312697709,0.0001362143061600049,-5.246384680475872,-5.168142623290503,-207.8960132449879,an0,2230.0
0.0,0.9105121565347394,-0.3820562678426137,0.7652852536775531,-0.6610169491525424,-0.3924528301886792,-0.1022537960052056,0.3672681289696896,1.527022466420286e-05,-4.915502446407953,-4.868855027601286,-181.55868548027547,an0,2290.0
0.0,0.9396915702460376,-0.2690978930292397,0.7257253116469786,-0.7692307692307692,-0.3605442176870748,0.0509953971826774,0.407640206383847,3.269400084175321e-06,-5.013259135263789,-4.863197780234392,,an0,2410.0
0.4815495723462137,0.9378461969136624,-0.1119889696536771,0.781575853413847,-0.8,-0.3568773234200743,-0.3185779493096485,0.3718573117044454,1.8320701589480018e-06,-5.052143997849934,-5.028796611298653,,an0,2470.0
0.4793644290562391,0.9310539284115376,-0.2172274097282029,0.7524135615436609,-0.6888888888888889,-0.3552631578947368,-0.4052444232813671,0.376607629519428,9.043762348238539e-06,-5.038260685095641,-5.098387254950342,-203.84898336770985,an0,2710.0
0.9496225664520842,0.9217536014902816,-0.039263574908236,0.6815000492845857,-0.7714285714285715,-0.3710144927536232,-2.2444054951641195,0.3939957939105912,1.3559626905717854e-05,-5.049304788909084,-5.179299680460275,,an0,2770.0
0.946175323406656,0.9118945924494504,-0.0322574990234684,0.7616836256309526,-0.7837837837837838,-0.2699386503067484,-1.5818488509491178,0.3499935478072301,0.0003138973615480875,-4.873345407349534,-4.909617731104366,,an0,2830.0
0.4738934560647762,0.9157900738723352,-0.1692473565611447,0.6703313895576273,-0.6470588235294117,-0.3834586466165413,0.2310862671161674,0.4630808962163226,1.6915013818287206e-05,-5.484156562076169,-5.376607275179951,-265.64490903987615,an0,2890.0
0.4740432290725579,0.9196918043980707,-0.2090974755140731,0.6408028096198032,-0.775,-0.4264705882352941,-0.683324208646493,0.4307839525493016,5.396536296193728e-06,-5.568701106009037,-5.336318768670756,,an0,2950.0
0.0,0.9198732461592698,-0.177355639518473,0.6303779730720324,-0.6111111111111112,-0.4182509505703422,0.0928487889967582,0.6069493240960514,5.6132688028002626e-06,-5.312998724332905,-5.265530532048781,-235.22339973799643,an0,3010.0
0.94555838407475,0.9092639734579168,-0.015811153399254,0.6998296511249129,-0.5777777777777777,-0.3571428571428571,-2.010434186198816,0.4905763758300493,0.00034910050108770104,-4.931700025731861,-4.982717541479092,-152.07545516028506,an0,3070.0
0.9400734365473218,0.9001223942455363,-0.0217245319569716,0.7573983604539872,-0.6521739130434783,-0.3457943925233644,1.208854778017995,0.624558330165454,0.00019563272590897513,-4.763055684503054,-4.891851538504732,-124.80660261355791,an0,3130.0
0.9460699352769414,0.9106363689728032,-0.0291868017766984,0.756473345724516,-0.5945945945945945,-0.3545454545454545,-2.3581149831272836,0.4007675291866586,1.778976285000709e-05,-5.053598784059575,-4.95971553027568,-161.5638429876319,an0,3190.0
0.946237791950958,0.9103963199182632,-0.0174987248794484,0.6973327526363234,-0.6,-0.431924882629108,-1.6967891615385822,0.3257023180708667,5.456210853225461e-06,-5.067470195125801,-4.951195557655689,-164.86279625321683,an0,3250.0
0.9586840454733504,0.9311400757889174,-0.0264340754317883,0.695273930969614,-0.6578947368421053,-0.2672413793103448,-0.0363737608529237,0.4339225028650144,0.0004527787547632833,-4.6322121307389255,-4.622441564754452,-128.53979877335712,an0,3310.0
0.9550466652019964,0.9261692230567304,-0.0206480727721447,0.8119522507707125,-0.4871794871794872,-0.2782608695652174,2.4711318824065462,0.5074923797073324,0.0005093002807200856,-4.480887558962106,-4.392036916980824,-108.0205037425314,an0,3370.0
0.9535632013469886,0.9251152694917204,-0.0202227055946326,0.7288661810822754,-0.5294117647058824,-0.3983050847457627,0.3334033305118755,0.3250225100218128,2.0980868400426854e-05,-5.034689111656996,-5.096971529834547,-175.28156618827788,an0,3430.0
0.9588632283218352,0.9314387138697254,-0.0243731754809931,0.8332706217513149,-0.4722222222222222,-0.4782608695652174,0.1974709204838878,0.386749671278232,1.5975626948366635e-06,-5.06498172869089,-5.1039310161497315,-181.66041737804724,an0,3490.0
0.9610996798720252,0.935166133120042,-0.0186581947759183,0.8001941033466334,-0.3846153846153846,-0.2683982683982684,3.393599284785852,0.4126902512471285,0.001130350589735463,-4.367523298922419,-4.3223506364195785,-96.67872388889776,an0,3550.0
0.9665656817408192,0.9447313652156218,-0.0237440605518438,0.8422740793801844,-0.4878048780487805,-0.3278688524590163,-1.25208874088093,0.29148111924597,4.415497239132728e-05,-4.704250391615021,-4.436978296284922,-131.96327817010828,an0,3610.0
0.966877548492536,0.9447959141542268,-0.0153268573667232,0.8201750268540547,-0.5405405405405406,-0.2605042016806723,0.915138431836478,0.5670391703606753,0.0005592923729058843,-4.53381480347516,-4.557723349532077,-121.52517957156961,an0,3670.0
0.9677720720846528,0.9462867868077548,-0.0204403350035903,0.7457401547309804,-0.4489795918367347,-0.5,-0.4453925912787958,0.4081024664867682,3.7288300314410255e-06,-5.222116073765356,-5.160217986861997,-191.94155076952282,an0,3730.0
0.9621509719591776,0.9369182865986292,-0.0286446154093408,0.8317400381219143,-0.4722222222222222,-0.1724137931034483,-1.0554383636093707,0.3492407270163502,0.0006991235341254189,-3.8899952571501695,-3.7388517549692275,-56.678029687900434,an0,3790.0
0.9624246772992548,0.9403234834365044,-0.0145821984658463,0.8489580264384946,-0.55,-0.3909090909090909,2.1945417977486943,0.3974912011658968,2.786191201321627e-05,-4.631914593506017,-4.679733820511618,-98.89890731363646,an0,3850.0
0.9643739497528376,0.946524168184962,-0.0114686258734138,0.7836230049983522,-0.5,-0.2033898305084746,0.0619625460105025,0.4148174461220315,0.0008754032804375274,-3.9755379618096494,-4.053467795586372,-67.0841321798261,an0,3910.0
0.9699634947185612,0.9499391578642687,-0.0362137364205557,0.6457720003001298,-0.696969696969697,-0.24,1.0163418477299688,0.561565007176649,6.235750083531249e-05,-4.125273132596209,-4.28884302842459,-67.37095795681222,an0,3970.0
0.9618741982871644,0.9440577716499398,-0.0270002304626269,0.7491044904280981,-0.5882352941176471,-0.3870967741935484,0.2825409388878764,0.3232299668552603,1.4618165212391654e-05,-5.177313765198587,-4.871364347491801,-197.3514916497523,an0,4030.0
0.9610542361053648,0.9350903935089414,-0.0275019436461646,0.6497547877096742,-0.6944444444444444,-0.2926829268292683,-1.3398893262840543,0.2914243170813365,3.718942153454529e-05,-4.783397366703021,-4.609036256697487,-133.11887998820603,an0,4090.0
0.9637127570060856,0.9395212616768096,-0.0279724838461047,0.8174684752546558,-0.5,-0.4396551724137931,0.5080724046647316,0.3590679706356835,8.273331343087984e-06,-4.719550170141714,-4.857171534663833,-125.04793667652613,an0,4150.0
0.96018675396601,0.93364458994335,-0.0250502865925093,0.6281241747803281,-0.5111111111111111,-0.3135593220338983,2.293868409600847,0.5355025300875378,0.000534453258498743,-4.616138439722651,-4.688658044100436,-118.10505155621178,an0,4210.0
0.9641922717813804,0.9414317174981388,-0.026938891830415,0.8026848293558736,-0.4651162790697675,-0.2796610169491525,1.247105131946888,0.38639744138165,0.0014541142070939744,-4.606000752098985,-4.699782542002159,-114.31039407042093,an0,4270.0
0.964345223970122,0.946207126328996,-0.0293595129452696,0.8067734699041841,-0.326530612244898,-0.5371900826446281,-1.7325346083102031,0.6153794507321252,2.4389615550212748e-06,-4.794184169485186,-4.811185010130172,-137.5912122850583,an0,4330.0
0.4795017608419942,0.93786552657285,-0.0273824950645066,0.6313153899189211,-0.5833333333333333,-0.5882352941176471,-0.6628502350537454,0.4572372122804367,9.659741134310089e-07,-5.266488663049047,-5.261461193978342,-198.81603674592048,an0,4390.0
0.9521464029605992,0.9217181342952088,-0.0363829696034965,0.6797120870464752,-0.5581395348837209,-0.411214953271028,-0.0737122043865444,0.46582904701542,5.5644050279135115e-05,-4.872536106295837,-4.976056181041363,-139.07966725237776,an0,4450.0
0.0,0.9179817155821512,-0.0322125967377496,0.7018450177634361,-0.631578947368421,-0.2682926829268293,-3.4229136079131983,0.4095690445808765,0.01752658577570344,-4.694336059913516,-4.582569965765926,-140.6631643155533,an0,4510.0
0.4734945083055341,0.9152233161037144,-0.0400138544198541,0.6891370150449818,-0.7878787878787878,-0.6057692307692307,1.441678017873829,0.4698422721341891,2.1409444331953003e-07,-5.513876014526527,-5.359009936327585,,an0,4570.0
0.9463470509533832,0.9109050328845462,-0.0186430115394356,0.6297441164599725,-0.5714285714285714,-0.5462184873949579,-1.7951009523179349,0.2406938973167549,3.4023807457925945e-07,-5.303902851867616,-5.326869855688434,-206.37774873297997,an0,4630.0
0.9478868923748188,0.9134271797714884,-0.0163200370980299,0.7766149262401862,-0.6585365853658536,-0.5182186234817814,0.3459284953274803,0.2756715959141028,2.5828767935632823e-06,-5.3365478472615795,-5.408124059860514,-212.22560074134512,an0,4690.0
0.948296795419971,0.9153930144441011,-0.0307474263413023,0.7309101952646678,-0.4375,-0.4518518518518518,-0.3985831247418211,0.5032162247284161,4.7834420193981054e-05,-5.252968688549247,-5.152264438712691,-235.39194876248587,an0,4750.0
0.943203559960488,0.9117480719755536,-0.0305458326189855,0.7035874230757345,-0.5853658536585367,-0.4505494505494505,-0.7091111886567973,0.4723707403952488,1.1478338318074799e-05,-4.833573858004158,-4.872515284987469,-128.88213936077724,an0,4810.0
0.931689266963228,0.8880043926879413,-0.0247582866537387,0.6327495972864268,-0.7837837837837838,-0.5022421524663677,-2.025972121591924,0.3527050596836477,8.850224749587739e-06,-5.421223275009533,-5.426612994047208,,an0,4870.0
0.9329499606130388,0.8882499343550647,-0.0212660326717106,0.6836086964790961,-0.8275862068965517,-0.1450381679389313,-0.1397000417293981,0.4251098295119202,0.00033270217235043073,-3.873842423072376,-3.6666329498198,,an0,4930.0
0.0,0.8884761723583137,-0.0190750174422794,0.7340519820600485,-0.7222222222222222,-0.3187250996015936,0.4296282037713332,0.2124174227697516,0.0018409231055459849,-4.992556099348795,-4.924017124207282,-178.35337158958632,an0,4990.0
0.9359921563946872,0.8933580020722622,-0.0251658024708678,0.7602659148521892,-0.6486486486486487,-0.3414634146341463,-0.3576729909537735,0.637495279559419,0.00014016778269141915,-4.968911035066001,-4.98516695380314,-157.73167375415252,an0,5050.0
0.2346006343516913,0.9019008966726052,-0.0419827678453248,0.6744214598410576,-0.7931034482758621,-0.2916666666666667,-0.3508204701336188,0.2125466077200682,0.0002362678346669494,-5.019121445145079,-4.934116723837418,,an0,5110.0
0.940636405200498,0.9033509172558822,-0.0256319052130698,0.8336834259141434,-0.6176470588235294,-0.4873949579831932,-2.5143940356706787,0.3368418659428177,7.445497555776888e-07,-5.089604216914639,-5.071209466953189,-182.00425348688287,an0,5170.0
0.4742986632450144,0.9148191649438058,-0.0244227425297632,0.5893073844884271,-0.7575757575757576,-0.3619047619047619,-0.4034312406247807,0.6857253235890908,3.0953180737063784e-05,-5.096840141598664,-4.946305344284091,,an0,5230.0
0.0,0.9194285846388112,-0.0510753813441087,0.7331437701103215,-0.6551724137931034,-0.3529411764705882,1.0527970850659625,0.3679929675323061,0.0002958925295659022,-5.285711357247248,-5.249436461556482,-208.37466197268333,an0,5290.0
0.4763856665012563,0.9211557815456518,-0.0266246109552928,0.7882403339440001,-0.5135135135135135,-0.4417670682730923,1.2471208353105756,0.4148928037567938,2.1446731112820764e-05,-5.030970486404321,-4.915386151413287,-173.02968365293398,an0,5350.0
0.475999334982603,0.9189312028507988,-0.0212055511620883,0.6892497649537906,-0.78125,-0.4953271028037383,-0.513254308033347,0.326302167395488,1.223754141021037e-05,-5.413137231265153,-5.362370898628867,,an0,5410.0
0.0,0.9184292667522526,-0.0444451494705549,0.6362200400952627,-0.6764705882352942,-0.3162393162393162,0.4047467132016252,0.376662048954281,0.00024278780947597245,-4.846855351541683,-4.877843801946907,-150.91096767499226,an0,5470.0
0.0,0.9145943987393436,-0.0558096723365467,0.5957495899481907,-0.7317073170731707,-0.4504504504504504,-0.6007877193209481,0.3813859868423289,0.00012324308020436551,-5.315363971619641,-5.189412446387306,-212.9488571256681,an0,5530.0
0.0,0.9210654243923024,-0.110681674848367,0.6509591621113889,-0.717948717948718,-0.4297520661157025,-0.0430654735310776,0.3572041384253409,2.424612284354391e-05,-5.029026453723853,-5.11057326156668,-152.8726841418662,an0,5590.0
0.0,0.9221597320987572,-0.0298420925452296,0.5605932891465517,-0.7804878048780488,-0.411214953271028,-2.385551167435825,0.2387211511472004,5.249651035902315e-05,-4.862167355329892,-4.802616121701657,,an0,5650.0
0.0,0.9208616420740072,-0.0663987777174334,0.576470479240909,-0.7941176470588236,-0.4137931034482758,1.3559915678701355,0.5185319314451338,4.005387296534395e-05,-5.264891056530411,-5.215501001496817,,an0,5710.0
0.0,0.91736221358616,-0.0659674791393907,0.690384514546168,-0.8823529411764706,-0.0343642611683848,-0.8342212789216176,0.4875691767956168,0.030210506283836945,-2.6382639919189916,-3.1277976504408453,,an0,5770.0
0.0,0.9143569010708604,-0.2688525162490197,0.7210833715397901,-0.7454545454545455,-0.5932203389830508,0.0080196949432571,0.4110157541663365,1.1290745831260177e-07,-5.413703251900076,-5.194025964091901,-248.44978648734488,an0,5830.0
0.0,0.9111260724601156,-0.0380825617505877,0.6895924766800999,-0.75,-0.3434343434343434,-0.3677400732944001,0.476406656221094,0.00018342276724966474,-4.950826223161396,-5.003366915208151,,an0,5890.0
0.0,0.9062312330771032,-0.028411707544538,0.659099893440672,-0.7142857142857143,-0.47,0.5572235281199974,0.405021354300126,6.2438726654408644e-06,-5.193555872434547,-5.156382416932933,-190.30875202953948,an0,5950.0
0.4708918084688487,0.90504143768534,-0.0288631609926865,0.7873308075446682,-0.8108108108108107,-0.3168316831683168,-0.59449311197972,0.4423889684706388,0.0003677765453577959,-4.783093339874828,-4.8765521497749775,,an0,6010.0
0.4719623410325185,0.9068920984004476,-0.0206921250768681,0.6748598753799633,-0.625,-0.3931623931623931,2.367819980006677,0.3782982514179818,5.429888950319192e-05,-5.0404747176072835,-4.999211264606491,-168.20880520429182,an0,6070.0
0.475456364484386,0.9172250040561822,-0.0236074146692876,0.7734737363924765,-0.5263157894736843,-0.3983402489626556,1.581957267272105,0.4992045577083731,0.00012287458679804153,-5.193846870578787,-5.071918970928187,-200.66577833526102,an0,6130.0
0.2376362251213732,0.9187669149449356,-0.0195897025405444,0.8223646929676577,-0.5526315789473684,-0.421875,1.268473357970355,0.4576553092909111,0.0001018795818622197,-5.197285297214508,-5.1532509729821045,-197.03312172459752,an0,6190.0
0.9520314380077022,0.9247150381071608,-0.0216672224480944,0.8136074078354689,-0.4390243902439024,-0.4065040650406504,-6.605593194830093,0.2294774592056851,8.565987733312247e-05,-4.970874970561821,-4.946478616837713,-160.83983891331889,an0,6250.0
0.9510312517043948,0.9188373310363448,-0.0251747485206738,0.7734868075563623,-0.6,-0.5527272727272727,0.5066051406300213,0.3851418125115275,1.5269114379316919e-07,-5.489085632094709,-5.344577362393593,-325.1993869289869,an0,6310.0
0.9521225837081246,0.9203232242407412,-0.0255612751083853,0.75678544626248,-0.42,-0.3615384615384615,-2.33387257543194,0.3275005542916759,0.0004944721322102864,-4.621978589090883,-4.652719402096653,-139.02238698459612,an0,6370.0
0.9476964126376292,0.9129994098687356,-0.0155469504021315,0.7935040606470773,-0.7058823529411764,-0.4104803493449782,0.6369353594372092,0.3780333680434929,3.698475152618349e-05,-5.164657022914028,-5.236010479399252,-188.45888017857519,an0,6430.0
0.94816257490365,0.917972463686772,-0.0167401595114476,0.7764600319817543,-0.7105263157894737,-0.3587786259541984,-2.293716797825274,0.4167909906474666,1.406331392621386e-05,-4.619014496197585,-4.793188598756791,-123.5526128985701,an0,6490.0
0.9495418586375955,0.9172957082316816,-0.0190073957717581,0.733261693665819,-0.5789473684210527,-0.4820143884892086,-1.1862464590492463,0.6452671856774292,6.229395351911379e-05,-5.401723888981542,-5.399821915104382,-254.53808876682447,an0,6550.0
0.472578430259892,0.9083550704922112,-0.0188416609366315,0.6951898868057996,-0.6052631578947368,-0.556390977443609,0.2091876494885888,0.3728914794135755,1.934690011208949e-06,-5.305386737984427,-5.331801086770942,-234.19881046003408,an0,6610.0
0.9422485000236048,0.908063487930412,-0.0192672329119973,0.7092912030885187,-0.7073170731707317,-0.5140562248995983,0.3422694172505981,0.3975620626485846,5.994814384556499e-08,-5.479875359798436,-5.111032021767283,-267.6033723456188,an0,6670.0
0.4756986719435481,0.916779356766358,-0.0128430554882941,0.7238186913749785,-0.6470588235294117,-0.4674329501915709,0.2215556430057582,0.447856024630237,1.0211951908183158e-05,-5.277803772915272,-5.346342818582731,-200.9260121043098,an0,6730.0
0.9478711579631204,0.914231416253272,-0.0174464011853641,0.8563041426657932,-0.5588235294117647,-0.4052287581699346,1.3006703678047369,0.5115265834207541,3.889813708861886e-05,-5.312993261523008,-5.254889740255859,-258.2675181742256,an0,6790.0
0.236130479921011,0.9095871387966066,-0.0472260892841429,0.7764851332359515,-0.7105263157894737,-0.2857142857142857,0.189555191787423,0.4766422682360671,0.00041705553043429154,-4.911834053240495,-4.959943429806751,-198.327871243031,an0,6850.0
0.0,0.9122563787468772,-0.0458244116075816,0.6947964420697611,-0.7692307692307692,-0.3475609756097561,-0.7398831054642168,0.4535377948211969,0.00028175756436283006,-5.485370153332031,-5.43135077969103,,an0,6910.0
0.0,0.9051389652335848,-0.080496282841354,0.6722469976504744,-0.6666666666666667,-0.3809523809523809,0.0335074707620362,0.6382467336733784,6.914074906514636e-05,-5.2135237850616996,-4.9942305820125705,-204.04236033603644,an0,7090.0
0.7074095474931316,0.9055820999228426,-0.0149694320792695,0.7614279028287475,-0.5,-0.5514705882352942,-1.828143045906489,0.4791605939643509,6.627447435934264e-07,-5.315260251517658,-5.173098102786358,-259.08489548501905,an0,7150.0
0.4726867757849644,0.9089559192832144,-0.0122823461248391,0.8543569265120535,-0.5666666666666667,-0.3636363636363636,-1.8885773454711103,0.2765225395321074,3.04197666342207e-05,-4.838941089292006,-4.6424521576619,-145.90382837545582,an0,7210.0
0.0,0.905669477888867,-0.0605545369377272,0.5840125523473569,-0.71875,-0.6138613861386139,1.555304787908142,0.4190800725598464,1.1607839984287214e-06,-5.373673413421553,-5.343883756663384,,an0,7270.0
0.0,0.898611162719776,-0.0672392023831241,0.7072780091760545,-0.7941176470588236,-0.4725274725274725,0.1069122415976432,0.3813829082717053,3.4845389951348438e-06,-5.074206145959854,-4.875351768601903,,an0,7330.0
0.0,0.8855350317666615,-0.0650614536750969,0.6328632834227661,-0.7560975609756098,-0.6967741935483871,-1.369541116289665,0.6762949094462812,2.0406733904426624e-06,-5.294894984434557,-5.255185170305224,-204.02788843752663,an0,7390.0
0.4618531596408972,0.8716361108084427,-0.0222310283681597,0.7372889898102732,-0.8611111111111112,-0.3561643835616438,0.0498772406592116,0.3642501606506206,0.0001367404779899145,-4.87809702451156,-4.720991428332899,,an0,7450.0
0.909826659493028,0.8556725292994447,-0.0235689020555137,0.7106703013354216,-0.7105263157894737,-0.4923076923076923,-0.9194530594166788,0.509549197944878,1.2902289703277519e-05,-4.7175301244707315,-4.705218907593888,-104.50754994645784,an0,7510.0
0.0,0.8516529835731673,-0.0135734791864391,0.6556336744770083,-0.8205128205128205,-0.1290322580645161,-0.3465793448194239,0.3100146282367134,0.018554326794298553,-3.2165647212803026,-3.1979068692083157,,an0,7570.0
0.9119633851718592,0.854443985925633,-0.0253635253873976,0.7114072313865711,-0.8888888888888888,-0.110091743119266,-0.0410159039113316,0.4348926257573807,0.003584177979715296,-2.967491086931942,-3.1882079261210565,,an0,7630.0
0.9120065503859234,0.8567303099843252,-0.0217659453406657,0.6448736179622339,-0.8571428571428572,-0.3125,0.2028100327895582,0.2767977606981605,2.4894349848429834e-05,-4.213995691324298,-4.050397677839783,,an0,7690.0
0.9150471248143904,0.8617548281852199,-0.0300140540199643,0.7092456909438861,-0.9142857142857144,-0.3194444444444444,-1.0847639058886986,0.4346233033399764,3.681271536474763e-05,-4.731273769768297,-4.5684252595995165,,an0,7750.0
0.0,0.8775831735950715,-0.0309229229861417,0.6192436396493906,-0.7058823529411764,-0.562962962962963,-1.558164005962957,0.4085996562710259,1.1104471435421872e-05,-4.706225739786041,-4.851770410525645,-107.73076142749505,an0,7810.0
0.9416221282978005,0.9027035471630008,-0.0216696275718399,0.7856612661346306,-0.9189189189189187,-0.0967741935483871,-1.418101508863636,0.3810793396745079,0.000493915696137263,-3.0685893559562016,-3.069308525211459,,an0,7870.0
0.0,0.9047720481871626,-0.027166784749233,0.6633174209842199,-0.9032258064516128,-0.2063492063492063,-0.0587092167042219,0.601658856983331,0.001684409456999547,-4.071143678815398,-3.753448336300832,,an0,7930.0
0.4728219543497713,0.9094065144992378,-0.018311914069988,0.6864459562095288,-0.9032258064516128,-0.1538461538461538,-0.1212286767474628,0.3444039904369013,0.001929739839119265,-3.563868563724585,-3.4992547682294455,,an0,7990.0
0.4781128594700038,0.9270428649000128,-0.0280872106197512,0.7254836558545936,-0.8823529411764706,-0.1904761904761904,-1.7056187369102211,0.3641330336925872,0.003604087818031733,-3.97233478125466,-3.639333116009425,,an0,8050.0
0.9561357773194096,0.9268929621990156,-0.0388502979975802,0.747617852975483,-0.8947368421052632,-0.3013698630136986,-1.416563555492018,0.5516309626788863,0.0001593041500223999,-4.619672853147882,-4.53160946792432,,an0,8110.0
0.4787788977454378,0.9287916148424692,-0.0349287847979624,0.6383276281263559,-0.7272727272727273,-0.421875,-2.9654198954662907,0.5093892617988789,0.0001093961416193254,-4.556039857742316,-4.6750690268440325,-100.1481638013797,an0,8170.0
0.9578347504203336,0.9298204285537152,-0.0382473873484592,0.654152929954275,-0.8974358974358975,-0.2162162162162162,0.0851970567100724,0.3601073904300462,0.0005356822217562037,-3.6652706331145706,-3.611726575145483,,an0,8230.0
0.9578922571322293,0.9298204285537152,-0.0309940106082702,0.7683336892349023,-0.9111111111111112,-0.15625,-1.4074782768231118,0.3312829004848186,0.0008734730522125069,-3.4552757078121257,-3.351818968201192,,an0,8290.0
0.4789058159566175,0.9295718543626436,-0.0333098334521682,0.7685039240440493,-0.9347826086956522,-0.1147540983606557,0.1905105577539954,0.4716062089701804,0.0012129189223923072,-3.107349224135933,-3.162189233959064,,an0,8350.0
0.4786588711839172,0.9288747126946812,-0.0306912090356907,0.7221291681574223,-0.8444444444444444,-0.4090909090909091,0.1669559621060829,0.3997210545531878,1.8888467766522517e-05,-4.375002829370873,-4.385598918734653,,an0,8410.0
0.4786876816780325,0.9283219540683754,-0.0388514947575137,0.8254575675170641,-0.9047619047619048,-0.3188405797101449,-2.9405184516736536,0.6304599355464781,0.001296654218702619,-4.721792208420974,-4.561653022387603,,an0,8470.0
0.9569931724410252,0.9283219540683754,-0.0243782394498176,0.9093448441738148,-0.9622641509433962,-1.7702702702702702,1.2386478370934304,0.4814519365489878,1.0923594744928511e-05,-4.683105441693169,-4.700574888808535,,an0,8530.0
0.9548658286261336,0.924776381043556,-0.0358144142137126,0.8499689829901649,-0.896551724137931,-0.3793103448275862,-0.4645669628693623,0.4645680543450194,1.2312561261897032e-05,-4.353456924314912,-4.384206332070627,,an0,8590.0
0.9560101087959608,0.9268285831847058,-0.0322827617874602,0.924476020197404,-0.9347826086956522,-0.2297297297297297,2.4725224797475973,0.4586360463587079,0.0003600513849770284,-4.250677881713219,-3.9113933888946892,,an0,8650.0
0.9559038041242138,0.926506340207023,-0.0403135078737462,0.8003358174370279,-0.88,-0.5084745762711864,2.55203013791638,0.5319740745625846,3.103833901677935e-06,-4.862270319613062,-4.7935026158292695,,an0,8710.0
0.0,0.9219569891564096,-0.0187813616862401,0.875070912020636,-1.0,-1.7702702702702702,1.115050680379636,0.4051708576061102,0.0011013529946951647,-4.744684460342577,-4.769028979207819,,an0,8770.0
0.9531741934938458,0.9219569891564096,-0.0202485051200527,0.9478636225848855,-0.98,-1.7702702702702702,2.0033877058574,0.4936987533631273,2.195376131601863e-05,-4.29159760536764,-4.37966421430749,,an0,8830.0
0.953168699391786,0.9219478323196434,-0.0243739264962686,0.9162613882820866,-0.9666666666666668,-1.7702702702702702,-0.0032458177511854,0.7099617519122483,4.358888654031977e-06,-4.672949392834717,-4.638688994080473,,an0,8890.0
0.9527708719469368,0.921417841725948,-0.029078475925197,0.8833503663736922,-0.9523809523809524,-1.7702702702702702,2.5435797765230252,0.2958374160203015,4.2632365125456414e-05,-4.7095172091039945,-4.765811155001603,,an0,8950.0
0.9526910388583048,0.9218399090947946,-0.0391089808270656,0.8263617689650452,-0.9545454545454546,-1.7702702702702702,1.9677501438546376,0.3980897965940427,1.7181674617263443e-05,-4.755167187126075,-4.868293152260932,,an0,9010.0
0.9473830930555684,0.9196714259745812,-0.0450802362644995,0.8087574470486946,-0.7857142857142857,-0.3444444444444444,-0.2214638762403741,0.3346111257201377,5.156029337529074e-05,-4.597581333064297,-4.7791483778391886,,an0,9070.0
0.4557577911915104,0.8525259706383682,-0.1642610526546023,0.7838453349497038,-0.6851851851851851,-0.4736842105263157,-0.307136595221618,0.4387276820476866,2.8987596894205005e-06,-5.077709986673049,-5.1461626594548715,-150.48887614563216,an0,9130.0
0.0,0.8590980933497456,-0.0650483799891067,0.8875681402139687,-0.59375,-0.4444444444444444,-0.1725426387276521,0.623743449899431,4.7538709533549825e-06,-4.788040026012586,-4.681338984208568,-132.989216884573,an0,9310.0
0.9364233957796302,0.9350586881872712,-0.0287536482473016,0.8953615389735432,-0.4,-0.324074074074074,2.8037779066654474,0.3558073907114071,9.80315731118482e-05,-4.405085469085298,-4.235638047092752,-84.69901276844143,an0,9370.0
0.9622734342857904,0.9498080393662488,-0.0520201503361204,0.8885725792083756,-0.3902439024390244,-0.3217391304347826,1.2481997156106268,0.3560912669451883,4.009673302891009e-05,-4.3368256914114,-4.171211073967225,-75.02374003687673,an0,9430.0
0.9730614280424976,0.9559168018628738,-0.0291344489017969,0.9461673170714228,-0.2127659574468084,-0.2307692307692307,-1.7614191272372657,0.30971766797781,0.0008775194979726999,-3.4601305682077594,-3.374173731842724,-51.72720166647932,an0,9490.0
0.9815832313260004,0.974872918707032,-0.0430298159244534,0.916979049682814,-0.087719298245614,-0.3008849557522124,-0.6424020600787604,0.4245085623014509,0.0004910931208537359,-3.59167559430258,-3.650039042811033,-31.892184702082126,an0,9550.0
0.9794442706959446,0.9682176684073228,-0.033885052334604,0.882259092491729,-0.2978723404255319,-0.2666666666666666,1.0106181651586956,0.4958289806766951,0.0006371206290317441,-4.26301044053107,-4.045410458469154,-97.71646810573729,an0,9610.0
0.2417591978924814,0.950599566582464,-0.0463589756086823,0.6434816900614904,-0.5833333333333333,-0.5677966101694916,0.7074521764308258,0.4126387487622324,3.928335743203418e-07,-5.438775528673193,-5.3219129958081295,-242.9047811811284,an0,9670.0
0.0,0.9399734010592043,-0.0713171012494245,0.6840629622049538,-0.7352941176470589,-0.3893805309734513,-0.8788836210799458,0.4068013522329661,4.790107123180765e-05,-5.35721872088338,-5.259813309238467,,an0,9730.0
0.9488052912592172,0.9148856836715492,-0.0625295903355446,0.8434072099043558,-0.5111111111111111,-0.2694300518134715,0.2739632812994201,0.3596422627673251,6.424097049760121e-05,-4.056914637903817,-3.903449010254422,-66.88195426280217,an0,9910.0
0.953566211153526,0.9240549465758776,-0.0457851694383764,0.7971679860347807,-0.4680851063829787,-0.3684210526315789,1.4696911517477644,0.34725224309885,0.00010967427201081294,-4.707585411445282,-4.735577547663394,-120.71956815138195,an0,9970.0
0.4794557573308937,0.9311204885714928,-0.0437380524758595,0.7207429229072123,-0.575,-0.5491803278688525,0.7094501643745058,0.3166099420246264,1.2936130762069202e-06,-5.133050044336339,-5.05704409208864,-177.70894912009396,an0,10030.0
0.9592458753345324,0.9383532327226032,-0.0364231305529239,0.8107841100998003,-0.3513513513513513,-0.25,3.1865839961755205,0.242445788545346,0.00097771851708506,-3.9702255828013713,-4.039667169753172,-74.59923383330818,an0,10090.0
0.0,0.938937629687764,-0.0434134430951654,0.7327285540051748,-0.7586206896551724,-0.3059701492537313,1.1676218843389723,0.5169864557163003,0.0007194371476827521,-5.1330168595727175,-5.06481868798886,,an0,10150.0
0.0,0.9364865192750056,-0.0462201547325868,0.6801109856312403,-0.6451612903225806,-0.4462809917355372,-0.7425831813028082,0.274905844986154,2.5685279442680447e-05,-5.371094500368195,-5.323052172417224,-221.39298123417,an0,10210.0
0.9567886869309188,0.9315118786039928,-0.0302788658153021,0.7349679917139235,-0.525,-0.4758064516129032,3.498922428525335,0.3089822024599623,2.0396156041912914e-05,-5.225347907156273,-5.220404579450063,-194.30356712325414,an0,10270.0
0.9554205798833656,0.9262247297275228,-0.0480562104023774,0.7211698584166616,-0.5853658536585367,-0.4838709677419355,1.172636376443919,0.3188140269880092,6.613228118112707e-06,-5.233015723136622,-5.203878126155906,-194.18708407938803,an0,10330.0
0.0,0.9194572341532996,-0.0354474014299589,0.7864130047140189,-0.5588235294117647,-0.4744525547445255,-0.5242907316555722,0.469165647823334,1.9330718494805372e-05,-5.245125103299354,-5.223509516450318,-218.96649978040705,an0,10390.0
0.7141233290302058,0.920360216662533,-0.0377589736723537,0.8378107960869846,-0.6764705882352942,-0.4453125,-0.682299519486184,0.3482089811499131,5.9622856294979875e-06,-5.07269338041168,-5.111708641451257,-175.05564732202828,an0,10450.0
0.4766784733489714,0.9199295738180102,-0.0464974844521995,0.8180439519667421,-0.4285714285714286,-0.4980544747081712,1.2735779532124332,0.2500729767979009,6.6718092082994505e-06,-5.3200942121203605,-5.260210815412875,-223.17088670294783,an0,10510.0
0.952199816586421,0.9212607061939168,-0.0291014375279631,0.6996301334143817,-0.6944444444444444,-0.5564516129032258,1.8962451466665735,0.2152465690104248,9.570155393299636e-07,-5.57954561659872,-5.500997535780627,-282.8951701835353,an0,10570.0
0.9504873258452616,0.919878467734694,-0.0341049505000177,0.8226925494676999,-0.4146341463414634,-0.488,2.2744352504984233,0.4676713261198775,3.242469788510377e-06,-4.876685418529816,-4.851222947716056,-153.1320203092385,an0,10630.0
0.9566391417261478,0.9287809020218868,-0.0393864290574015,0.7546902498850241,-0.4318181818181817,-0.328125,4.2384511929632325,0.1950105406866515,0.0004022065069526652,-4.803925537452896,-4.759190889619957,-147.7682697876883,an0,10690.0
0.9616205760331842,0.9387962244729636,-0.0345774533704695,0.7408783743641287,-0.3513513513513513,-0.5789473684210527,3.3526646243203455,0.4084640294610905,6.942519228779463e-07,-4.953353446176133,-4.923315162334101,-186.54610026872646,an0,10750.0
0.9630881556435846,0.9402681997115728,-0.025480938325486,0.6052261118522062,-0.625,-0.328125,-0.9205312384493072,0.2072477650833651,9.344742563580202e-06,-4.810231841435281,-4.796172939936246,-142.49931349455807,an0,10810.0
0.9608170883888918,0.935504800221242,-0.0356804462947553,0.7710461435521158,-0.5405405405405406,-0.5083333333333333,3.0256515371375303,0.3189724501302454,4.501524096715003e-06,-5.313853742418935,-5.276497167155402,-225.55349206931672,an0,10870.0
0.9578031320064642,0.9328323893267296,-0.0313263498669195,0.6612000259125216,-0.625,-0.5193798449612403,2.005935179418111,0.2552894394380131,4.5552104339511164e-06,-5.55675504458967,-5.604209312669562,-309.66349608345246,an0,10930.0
0.0,0.9204938275085552,-0.1252622369744722,0.7997082370786952,-0.6285714285714286,-0.3924050632911392,-0.1591880935576472,0.5539250354964103,8.459188071511442e-06,-5.473856017734977,-5.159393456034813,-264.05121939422656,an0,11110.0
0.0,0.909720092548758,-0.0418750584575623,0.6097113618406232,-0.7931034482758621,-0.2193548387096774,-0.625865083481001,0.326952745804639,0.000483991074046523,-4.204499871076147,-4.140789268203207,,an0,11170.0
0.4720929418765736,0.9089803419597317,-0.0159665026149143,0.6919488721064861,-0.7419354838709677,-0.5425101214574899,0.2780849568558817,0.3185865829629344,7.181991285298688e-08,-5.302941103108455,-5.037738856785735,,an0,11230.0
0.9483669962598134,0.9142463506433012,-0.042433416582509,0.7060560112456209,-0.5909090909090908,-0.5217391304347826,-0.224662836333251,0.4179999693282956,9.036097333878482e-07,-5.171395017642294,-5.268198099253362,-188.0577448208435,an0,11290.0
0.0,0.9088615071112168,-0.06859376065785,0.7032574271519777,-0.6666666666666667,-0.4013840830449827,1.1953853042843887,0.4071713066733429,3.331294883637445e-05,-5.493596562283667,-5.331407765074536,-232.58195314052682,an0,11350.0
0.9434324322405286,0.905720720400881,-0.0185333654068557,0.7359056758094507,-0.4634146341463414,-0.3514644351464435,-0.9405566231321524,0.3502105576619778,1.9152270565528412e-05,-4.73516860634723,-4.7211690929601975,-129.57404942534257,an0,11410.0
0.9515773847407348,0.9206723328812584,-0.020582772611908,0.8343790306364557,-0.4615384615384615,-0.452991452991453,4.038988201463727,0.2325209277633796,5.9192424880123785e-06,-4.453899340872719,-4.567390858791114,-92.88075070061925,an0,11470.0
0.4780821789199997,0.9270403228226206,-0.0597374527509573,0.7159273874773362,-0.7222222222222222,-0.2803030303030303,0.8316604162341038,0.3814477984522672,0.00019881670305333822,-4.87203902325235,-4.824874989396781,-149.46172965199742,an0,11530.0
0.9605404055662916,0.9343487041045586,-0.0551567779977315,0.7675841139173678,-0.3076923076923077,-0.4576271186440678,3.231902673265969,0.1938280932737221,3.562220907179739e-06,-4.993268433271388,-4.984936539629919,-166.19034697822332,an0,11590.0
0.9637788637504936,0.9404833021516718,-0.0425021043658257,0.7556321659610544,-0.4186046511627906,-0.1384615384615384,5.337221031419537,0.4312182533364011,0.006042744583192992,-3.549261904958669,-3.3884970291488288,-54.26975606402971,an0,11650.0
0.9695064579809596,0.96336211750988,-0.036970904929675,0.8791969081636395,-0.2307692307692307,-0.2461538461538461,3.787605578956708,0.1889264647891735,0.002218113890589063,-3.85102043561861,-3.757987199804846,-72.09261449443761,an0,11710.0
0.9736645689364452,0.9561076148940753,-0.0508039554878919,0.7039371138295555,-0.4772727272727273,-0.4102564102564102,-0.8597105537830982,0.432918279344765,8.640788985500568e-06,-4.991439062787706,-4.965024111840014,-149.1791465634438,an0,11770.0
0.9660528938354912,0.9442771634526544,-0.0227464909277163,0.7736588695655996,-0.4390243902439024,-0.2761194029850746,3.0277457547544504,0.4148948596744785,0.0015516922412037954,-4.516516915397941,-4.454559076389743,-119.46071831750639,an0,11830.0
0.4781907239480729,0.928731810745638,-0.016782544192955,0.7396544278243344,-0.6060606060606061,-0.3805970149253731,1.0104064013121,0.4498239391309632,8.107528008681165e-05,-5.158843526143814,-5.183161424454487,-194.21520877057657,an0,11890.0
0.9538574911144306,0.923526149738261,-0.0354533561232118,0.7922934657688716,-0.7714285714285715,-0.4083333333333333,-2.77469119017205,0.3506628914774794,8.008319802089545e-06,-5.184755485100272,-5.235577377264034,,an0,11950.0
0.95522791258051,0.9261845370925348,-0.0196942521988394,0.8491760779686409,-0.3170731707317072,-0.411522633744856,1.4826792653381915,0.456716770143419,2.7595800150894885e-05,-4.77175182149601,-4.711315376099415,-147.81288979647405,an0,12010.0
0.955979013850521,0.9311307935795532,-0.0161963827221429,0.8118157907711571,-0.3636363636363636,-0.2457627118644068,4.580007796814637,0.338974345452385,0.007088836500020122,-4.2156144974299075,-4.135635607514391,-81.01449465471497,an0,12070.0
0.0,0.9257926855359372,-0.0821384330790804,0.8299098273398756,-0.7575757575757576,-0.3015384615384615,1.2770788176168313,0.6410309437873798,8.336883724367801e-05,-4.879355448595484,-4.674725621428212,,an0,12190.0
0.0,0.9134409298187178,-0.0777209630808331,0.7914894408699596,-0.7142857142857143,-0.3959731543624161,-1.0688286206574216,0.3915122721292627,6.2322602788188265e-06,-5.363284257683066,-5.139199267546985,-247.91507644815098,an0,12250.0
0.0,0.9141283052007502,-0.0183334620623127,0.6160729470076978,-0.7837837837837838,-0.3824701195219123,0.2796821647227143,0.4482118874526106,7.092027884575958e-05,-5.324112607857336,-5.189168990306988,,an0,12310.0
0.4743884392521675,0.9146281308405584,-0.022248638549913,0.7238619482062975,-0.7105263157894737,-0.4545454545454545,-0.4157855578667994,0.4373868544368018,7.256553025113114e-06,-4.941372164947943,-4.98944194382611,-145.12878994136813,an0,12370.0
0.0,0.912117385616082,-0.0144175987981917,0.7550836826319424,-0.6875,-0.4061302681992337,-0.4714257406463386,0.3546294814950157,2.8273979624586866e-05,-5.315182968407238,-5.212747583982009,-210.92313020668374,an0,12430.0
0.473370291464727,0.9119059775831364,-0.0218906841062141,0.687454229368686,-0.7837837837837838,-0.1470588235294117,0.8915859039312509,0.2924385091978593,0.005173979999275418,-3.7685505314832515,-3.66972759239105,,an0,12490.0
0.4735036379641127,0.9121653336452348,-0.0239877904828088,0.7407302853864126,-0.6190476190476191,-0.3371647509578544,-0.089233164330745,0.5881073337375714,0.00034740357645591407,-4.745061252290453,-4.7611919362769015,-131.17574768900153,an0,12550.0
0.9558728942457636,0.9268845924488274,-0.0226533971171817,0.6970433506289053,-0.631578947368421,-0.4015748031496063,-2.5779982725453725,0.5191549359927763,3.538743618229531e-05,-5.3537882365945695,-5.344341054735839,-233.04479376326273,an0,12610.0
0.4785484991887368,0.927391752208736,-0.0312050455146885,0.7790630557565468,-0.4772727272727273,-0.4818181818181818,1.593245925842049,0.2354976872034042,0.00014560624391471484,-5.0331409009696815,-5.169536282337117,-149.9419115761847,an0,12670.0
0.4727812040764024,0.9117560714345946,-0.0302989536110086,0.7165772354702162,-0.7741935483870968,-0.3928571428571428,0.4322132662299981,0.4450804805732749,0.00013392185456719913,-4.991493186311076,-4.925895055773708,,an0,12730.0
0.0,0.8914581133841741,-0.0522034554599566,0.5357155148843407,-0.7631578947368421,-0.3466666666666667,-6.382514144027599,0.5196567205521075,0.00020526749101987382,-4.695314352307883,-4.584473247778801,,an0,12790.0
0.4630367438700857,0.872884734268272,-0.0373517489857799,0.673469861524598,-0.7142857142857143,-0.5034013605442177,-0.1076428078566577,0.4412486291229568,2.9290531777462626e-06,-4.540628792713593,-4.616054711442517,-89.7014131138281,an0,12850.0
0.9206985423776431,0.8703190617605767,-0.045124861498728,0.832509906685867,-0.7435897435897436,-0.3205128205128205,0.2584360467897702,0.2933259330169639,5.653201979732853e-05,-4.420080376061367,-4.509860084832011,-86.72843516956017,an0,12910.0
0.0,0.8807612908276279,-0.0995860372587472,0.6189320395533043,-0.8536585365853658,-0.4566929133858268,1.5133267343151755,0.3989905500527708,1.4436572168654336e-05,-4.455593477317051,-4.419124890422576,,an0,12970.0
0.4739421393331335,0.920206433793153,-0.1146382391682107,0.7465617467901015,-0.6363636363636364,-0.2484472049689441,0.2786060571376859,0.2683143453428814,0.003098855409989771,-4.253891454170429,-4.407908383440564,-86.64462616822483,an0,13090.0
0.948255988198678,0.92039494111498,-0.0212693488402805,0.649438204715989,-0.6363636363636364,-0.4186046511627907,-3.8308407795334904,0.6002896784417519,1.4343291330165238e-05,-4.950923091598838,-4.837141305218429,-143.41278780828435,an0,13150.0
0.4736308756562053,0.9127039435997109,-0.0373866459485663,0.7692069178877013,-0.6046511627906976,-0.2553191489361702,-2.328284793088302,0.3670292938557357,0.00697430363203166,-4.42154135746588,-4.513763990977233,-90.36150687298971,an0,13210.0
0.9355516118448404,0.906722462727304,-0.0437563339162526,0.8263761386779586,-0.425,-0.4909090909090909,0.5938504082806292,0.3599506346155305,2.4309038603619722e-06,-5.060748073052309,-4.971181576607055,-177.2884345972082,an0,13270.0
0.0,0.90422608691505,-0.0450715370079033,0.754540488110849,-0.6756756756756757,-0.3009708737864077,2.30229074722983,0.3066150875278834,0.001377487971783066,-4.538685188444148,-4.766954750494605,-100.94885383864016,an0,13330.0
0.963223730133924,0.9417066126128826,-0.0201029089351141,0.9235391800468176,-0.1724137931034483,-0.3181818181818182,-1.6302180971146203,0.4614444629511416,0.0019697489561104915,-3.963683888084291,-3.9631949675213924,-63.472723451995535,an0,13390.0
0.4826518939112987,0.9428407965612076,-0.0459674501500105,0.727932710221658,-0.65,-0.4267782426778242,-0.1581798869160332,0.3226880444917417,3.333269082357565e-05,-5.068582225847151,-5.107517888630456,-175.95624626428116,an0,13450.0
0.9602662690974896,0.935796922753474,-0.0428439634044138,0.7406043773440895,-0.5714285714285714,-0.2936507936507936,-3.5356905711180464,0.4605351553010609,0.00017763445480429614,-4.974841569160915,-4.947292009559653,-171.66518465758574,an0,13510.0
0.4787886391386911,0.9291114427582906,-0.0198011748634442,0.7624482006503025,-0.5,-0.4375,-3.666373083011889,0.4736025773300183,7.544262688062984e-05,-5.2227678923718095,-5.29205080921177,-202.67854290167188,an0,13570.0
0.955173745545005,0.9259118700400502,-0.0539392403593936,0.7034150009579209,-0.5882352941176471,-0.2424242424242424,0.4360318704689806,0.39129199000054,0.00025361977484965656,-4.341938456469561,-4.405108306641251,-97.72252755539158,an0,13630.0
0.0,0.9238325477805336,-0.0848406143977561,0.6769669963916664,-0.625,-0.5348837209302325,0.1630157786076928,0.4473488811948344,5.522310989491853e-06,-5.44820288641171,-5.500342061128077,-249.8193143700304,an0,13690.0
0.2370163920594815,0.9174105060519996,-0.0781682188138569,0.7005790727074309,-0.5625,-0.5476190476190477,-0.6076528873641454,0.3984214154957302,8.497523558080785e-06,-5.210189943751624,-5.135840112307071,-184.0497453568886,an0,13810.0
0.0,0.9131056679105386,-0.0801753519209605,0.6197539117683359,-0.7647058823529411,-0.3636363636363636,-1.4450881342809134,0.4081044813851067,2.9718761479266848e-05,-5.0847038992087255,-4.8566961610351385,,an0,13930.0
0.2352176371835646,0.9020458067357578,-0.1357395090173045,0.6481620565637424,-0.6734693877551021,-0.3636363636363636,-0.4561593486546186,0.3419864052195236,0.00014654618272105785,-4.702842926841843,-4.862091415945387,-119.7733222746641,an0,13990.0
0.0,0.9015448029766407,-0.2095809764670761,0.7259606002920256,-0.7551020408163265,-0.5081967213114754,-0.1336291286307285,0.2398606599916737,1.3836479285173545e-05,-5.479583073556521,-5.542363962214752,-257.9765530344694,an0,14050.0
0.2351505884050009,0.902235906934682,-0.0216800347546459,0.7339588393602018,-0.627906976744186,-0.4416666666666666,-0.268507740368081,0.5181877205371658,9.120307328442184e-05,-5.258511968060006,-5.2283591838341055,-220.3174996415726,an0,14110.0
0.0,0.915493038274375,-0.0709463823889601,0.671161638562186,-0.6666666666666667,-0.5445544554455446,-1.2144904469960425,0.2922700420165199,1.3127066686035381e-05,-4.982882168350123,-5.1431705436434205,-154.97862597852432,an0,14290.0
0.0,0.9027767187354044,-0.0367088406265271,0.851340790695951,-0.5428571428571429,-0.2986425339366516,-0.8909409242595395,0.5195171439828469,0.00023244169880638573,-4.48937745527824,-4.2807595801248555,-98.75515855098712,an0,14350.0
0.0,0.9094485159668976,-0.0276638854528527,0.7134391913944486,-0.7380952380952381,-0.3584905660377358,-2.9826605100015633,0.3199266003796236,9.522295017850512e-05,-4.94193262772203,-4.887955615139096,-151.69105462522504,an0,14410.0
0.4742756740051531,0.9142522466838438,-0.0462733867263694,0.7482004198359758,-0.4523809523809523,-0.3947368421052631,-1.127084215907317,0.2937340229541949,1.0751579935039284e-05,-5.0144175002260925,-4.78227188354972,-175.2261107804842,an0,14470.0
0.0,0.9303741352629208,-0.0660995339323321,0.7091046503337302,-0.7105263157894737,-0.3140495867768595,-0.0901548983888991,0.3509577827299362,0.00012561862319011315,-4.506503863336357,-4.46938667572371,-117.30155345247928,an0,14530.0
0.0,0.9302348564793436,-0.0571907393385251,0.767732533030523,-0.7575757575757576,-0.3888888888888889,-1.0029611431139658,0.4569489409808447,6.093048178560572e-05,-5.0129199128433,-4.9273678161134855,,an0,14590.0
0.476269973491526,0.9214443291026676,-0.0399341461029087,0.6657375791143201,-0.675,-0.2989690721649484,0.5024022009379441,0.2829523406609734,0.00028835681291321404,-4.589760303179169,-4.751860314844578,-108.52079395273103,an0,14650.0
0.0,0.9206531709263974,-0.0504988004326789,0.7399392390289417,-0.8108108108108107,-0.4363636363636363,-0.0976046342740141,0.6011880286630981,2.9961967055407937e-05,-5.108893511334488,-5.055784443463324,,an0,14710.0
0.0,0.9125131061778932,-0.04705994333296,0.7936625832998129,-0.6,-0.5615763546798029,0.3643121850685972,0.3415693848230654,1.3552546383015109e-05,-5.2619025606345105,-5.33511562536381,-203.50276904884538,an0,14770.0
0.0,0.911530050744733,-0.0346588247852589,0.6597547017019285,-0.6363636363636364,-0.5,0.893119424020123,0.6120149703126934,3.984030010666222e-06,-5.371325787496546,-5.325324817096563,-237.39079705927793,an0,14830.0
0.0,0.9092729511067956,-0.0828895733841378,0.7322953844304266,-0.7714285714285715,-0.2575107296137339,0.0378117606777874,0.4463761457356284,0.00023629133496253012,-4.646060325258753,-4.651209330802456,,an0,14890.0
0.0,0.9045764467004492,-0.1298964311816565,0.6457722281141355,-0.7380952380952381,-0.3552631578947368,-0.0655838580015696,0.4588409996739803,0.00018393382993892135,-5.197090962858516,-5.300412781375018,-201.1178312005779,an0,14950.0
0.6985771957846842,0.8844576509372317,-0.0330221352113309,0.7462256494227686,-0.8,-0.3493150684931507,-0.2188527423931517,0.3573372776149051,3.449184591949225e-05,-5.525395111567199,-5.4252777830543835,,an0,15010.0
0.4648825006434727,0.8845595607881009,-0.0322212851428255,0.7547817330674789,-0.7894736842105263,-0.5190839694656488,0.4001225251738143,0.2749145314564803,1.2697010946299643e-06,-5.540554895524484,-5.57362774151506,,an0,15070.0
0.0,0.8961313163399731,-0.0827998442940117,0.687787738481985,-0.6046511627906976,-0.5480769230769231,-0.256421096340599,0.4589205728362679,9.97458571534815e-07,-5.138634254037041,-5.22428284731645,-184.46964693463235,an0,15130.0
0.9340193320897066,0.8939320630260886,-0.0320081357350789,0.812883879407284,-0.6,-0.3644859813084112,-0.3469333914534647,0.3863410968454214,2.3242162231407716e-05,-4.862933786338748,-4.831852144918129,-139.07057801255309,an0,15190.0
0.4685406673487607,0.892388779634281,-0.0309471657727223,0.6751412042009333,-0.717948717948718,-0.5740740740740741,0.1860960691297578,0.3301790853016887,1.1726445349647334e-06,-5.3997879251811565,-5.376064009247,-239.18090150612073,an0,15250.0
0.0,0.9025533560012124,-0.0334676177610708,0.8379697318067936,-0.7741935483870968,-0.5052631578947369,2.6284613321416854,0.4927499940726795,3.763765396933021e-05,-5.260183996341852,-5.2725910977225645,,an0,15310.0
0.0,0.911314374946024,-0.0346827324020159,0.7808540050454182,-0.5121951219512195,-0.3647798742138364,2.0604597142133225,0.3036148746292608,0.001448004284289506,-4.578374114619421,-4.561310004951538,-100.79327509302361,an0,15370.0
0.0,0.8906427379449537,-0.0345946613343517,0.7610782546808103,-0.7954545454545454,-0.4571428571428571,-2.0289133589141852,0.2244581879769815,9.677201143697627e-05,-4.9600710947246425,-4.812076334424833,,an0,15430.0
0.0,0.8881127366732106,-0.0452837088262794,0.7157754429044492,-0.8387096774193549,-0.3068181818181818,5.290299869936955,0.5579409243575667,0.0024465112592958207,-4.997852425674713,-4.78208101443293,,an0,15490.0
0.0,0.8874515224534609,-0.0276053087865439,0.6763301899887404,-0.75,-0.4278606965174129,-1.0654916718991374,0.3799569369972654,1.2319555802007308e-05,-4.989777947210162,-5.059585654095327,,an0,15550.0
0.0,0.8870835219628657,-0.0405524371648267,0.732702250150526,-0.78125,-0.2894736842105263,0.5616026143786734,0.5105890508590165,0.00013796191958002782,-4.813413956241524,-4.65186344404416,,an0,15610.0
0.0,0.897471992017309,-0.0394030251723048,0.6898361877802779,-0.675,-0.3163265306122449,0.246372386732749,0.3919362102931727,0.0009422590045235319,-4.7056632224014265,-4.7666500420065026,-89.96346237300867,an0,15670.0
0.468703012640681,0.8956767088022699,-0.0292908655394619,0.7485172792052109,-0.8333333333333334,-0.2922374429223744,2.925403248864825,0.3976535535269183,0.00029928900527178344,-4.723606959352679,-4.7592932363947416,,an0,15730.0
0.0,0.9035003325964286,-0.0909632876869956,0.68308431473381,-0.6046511627906976,-0.4128440366972477,0.6182087725375215,0.5274527037880508,7.787328466333253e-05,-4.79002655166638,-4.931523946897691,-131.1424010113636,an0,15790.0
0.0,0.9227511654656142,-0.1443642007411502,0.690884352307784,-0.7619047619047619,-0.5638297872340425,0.2215923444204668,0.3395999714605278,7.275034399184933e-07,-5.132799708127582,-5.060848709692379,-181.9997351867964,an0,15850.0
0.0,0.9131307350193408,-0.2750229098430901,0.8017532083130637,-0.4821428571428571,-0.3623188405797101,0.0116984387483254,0.393877059234637,5.9494056207962164e-05,-3.936636070192618,-4.055914916962732,-65.13152513142664,an0,15910.0
0.0,0.8848160843935788,-0.2720337116373379,0.7518832691196058,-0.4098360655737705,-0.3571428571428571,-0.1364615585067715,0.4744730793119909,5.632586171388858e-05,-4.103825688391549,-4.104188200112669,-73.2219376928421,an0,15970.0
0.4848151472224394,0.9504667142334352,-0.1294458023576004,0.744518975145137,-0.6875,-0.4769230769230769,0.3109231892365799,0.4349791210939266,3.197948160450228e-06,-4.340201989504876,-4.448019945452306,-96.52611484006309,an0,16030.0
0.0,0.9409464927408768,-0.1475440188029009,0.6952228106026334,-0.8108108108108107,-0.3209876543209876,1.7686810429013018,0.533285395073618,2.981821915778185e-05,-4.595957428783102,-4.454467858287375,,an0,16090.0
0.0,0.9237438014729836,-0.0181055188838211,0.7361079248545461,-0.5869565217391304,-0.4823529411764706,-0.1098052055976237,0.3392384144384782,6.99223045143801e-05,-4.883493779625876,-4.885186725251728,-139.47301442640745,an0,16150.0
0.0,0.9106187732110388,-0.0517002436382757,0.8279499410989521,-0.4444444444444444,-0.4210526315789473,2.575810208828041,0.2944013964203812,0.0001860041791456228,-4.376403894123932,-4.463802324980039,-85.57531013574383,an0,16210.0
0.0,0.9238048473940164,-0.1129955020857504,0.679171489160782,-0.6666666666666667,-0.375,0.5683621607698065,0.3326291574041033,3.241800539595117e-05,-4.887781186121064,-4.86646417676851,-138.68216515526888,an0,16270.0
0.4809269991480576,0.9364233304935252,-0.0307222213428073,0.7119319423517464,-0.5416666666666667,-0.3902439024390244,-0.1208218352069524,0.2897375756424299,7.954332135464486e-05,-4.653460740111502,-4.690660622285359,-113.50380857097522,an0,16330.0
0.4783888632668267,0.9298937169532928,-0.0674306215933925,0.7953735674341754,-0.6585365853658536,-0.5209302325581395,0.1082602962923397,0.3923941203866854,1.307714551735331e-06,-5.133394947242183,-5.232447477023382,-181.68319161597796,an0,16390.0
0.0,0.9256162195652432,-0.0753941583072449,0.7638247843725109,-0.6052631578947368,-0.5,0.7509457240214505,0.5304182038078228,4.1652126615028526e-06,-4.825986152366778,-4.854380271901473,-136.16286504113847,an0,16450.0
0.4812290224971035,0.9376675720286454,-0.0205780820309991,0.8753165104529635,-0.5227272727272727,-0.4095238095238095,0.0442053548793812,0.401108978771762,1.849027714379944e-05,-4.519301800553665,-4.586573827980268,-104.65151152352445,an0,16510.0
0.0,0.9388623235885648,-0.1186092378123524,0.6525385460810978,-0.65,-0.3232323232323232,0.5884124623571495,0.4741017595356133,9.239675408906031e-05,-4.55388792998475,-4.623169507849617,-109.37299806864334,an0,16570.0
0.2403943657249233,0.9359624381661554,-0.097065391801178,0.7175672656294041,-0.75,-0.3164556962025316,0.3143314042706353,0.3288296381694198,0.0006237206135554746,-4.765698425690047,-4.729128498819259,,an0,16630.0
0.4800701061164663,0.93313898390704,-0.1067169583977727,0.778189123712036,-0.6739130434782609,-0.391304347826087,0.5469496500737703,0.3870979615329102,4.161102707449256e-06,-4.616434957788953,-4.5970512714864435,-113.992055295052,an0,16690.0
0.0,0.914462504330544,-0.2307596808988411,0.6729234482908312,-0.5357142857142857,-0.6216216216216216,-0.1576878367223003,0.2162484602594387,9.151646796714194e-07,-4.870995154625975,-4.741212032102465,-125.6340314002796,an0,16750.0
0.0,0.9061248164848708,-0.137755522090512,0.6664038203755299,-0.7446808510638299,-0.2773722627737226,0.255236987587897,0.5641541978833695,0.002349075310947687,-4.436561797731429,-4.420096433749837,-99.41318211695038,an0,16810.0
0.0,0.9095227148619748,-0.0447203673482494,0.7937216815751198,-0.7073170731707317,-0.2658227848101265,0.4954146689358034,0.4253660518002188,0.0004777116100362619,-4.2729348192998895,-4.288698112850746,-89.14837333328109,an0,16870.0
0.0,0.9099216710182768,-0.0361726705075404,0.733751619572484,-0.8461538461538461,-0.4338624338624338,1.1309841188003251,0.336790357948553,2.6732124262568772e-05,-4.917820107661092,-4.906281277749274,,an0,16930.0
0.4669165441705664,0.8949437609547034,-0.0456744612791256,0.7266865061934561,-0.5652173913043479,-0.5625,2.837372200262322,0.2481620602663889,3.612069072547944e-06,-5.244730137512676,-5.193852766660604,-205.55979200391937,an0,16990.0
0.4701796017416608,0.8962847890565169,-0.0635836513041959,0.8582544599974968,-0.5681818181818181,-0.3814432989690721,0.5462014877031145,0.4724153741734967,4.067696423084777e-05,-4.642585859149059,-4.692066411031285,-119.96212657885826,an0,17050.0
0.4751056562760961,0.9179528811718748,-0.0789590029936628,0.8045804037857784,-0.7441860465116279,-0.4044943820224719,0.3600482110348489,0.3354906186008783,3.501798680716794e-05,-4.957645765695496,-5.016929413344769,-153.3720793628435,an0,17110.0
0.4745036150624858,0.9196863459923078,-0.0339037627317018,0.6959903668098933,-0.6,-0.5294117647058824,-0.3521677447167213,0.3412398207314957,1.2933980179120017e-06,-4.813948637347509,-4.868650297560742,-133.41782411186884,an0,17170.0
0.0,0.922354127340938,-0.0666073411972554,0.7061248978524518,-0.7428571428571429,-0.4554455445544554,0.3351921649386584,0.357063924890663,1.4176024053971384e-05,-5.129806527588667,-5.214872902368757,,an0,17230.0
0.0,0.9170596486715592,-0.0800657565632576,0.6540404122261821,-0.7111111111111111,-0.3333333333333333,0.0762273456168522,0.5320651945725198,0.0033351066532662874,-4.928917806382195,-4.978866831348586,-179.40319266538046,an0,17290.0
0.0,0.8739020776941504,-0.1262326858911129,0.7345590280678699,-0.675,-0.3109756097560975,-0.057461537072778,0.435041985631184,0.0002745059279625283,-5.076838102802557,-4.858630971353382,-226.63874619835926,an0,17350.0
0.0,0.8823179244187999,-0.1350990002807036,0.7376643216344797,-0.8421052631578947,-0.4147157190635451,0.3737177070832129,0.4663275818448809,8.709230423196534e-06,-5.382928292127857,-5.290104066540101,,an0,17410.0
0.0,0.8893727328740366,-0.1068389511757142,0.74600653090433,-0.6956521739130435,-0.3022508038585209,-0.0216962703620324,0.3094866825660433,0.0025436103218611076,-5.102471846851105,-5.203898611347354,-235.21120106128848,an0,17470.0
0.0,0.904879078021184,-0.0673128499948242,0.7012268725738287,-0.8,-0.3475609756097561,0.6275713419431764,0.4918985132054562,8.496765372959025e-05,-5.585303614322134,-5.46683287189264,,an0,17530.0
0.0,0.9178986933264442,-0.1198510853899773,0.6362811901183743,-0.8888888888888888,-0.2666666666666666,0.0524043543841071,0.3919630061832611,0.00024892395318183475,-5.153288730244369,-4.766096191281407,,an0,17590.0
0.0,0.9294992856489396,-0.1401330278526657,0.7272717436070002,-0.7575757575757576,-0.3323262839879154,0.2777945620781615,0.5101920306533106,3.5067091997463726e-05,-5.064325668842966,-4.8945615967030545,,an0,17650.0
0.0,0.9299160256249744,-0.0680997812338258,0.7247996659637673,-0.75,-0.3983050847457627,2.733400374988137,0.4425389982538748,2.9765271822914218e-05,-4.84262021979002,-4.7346563401959845,,an0,17710.0
0.0,0.9182404633574568,-0.0783857274665917,0.7297067344019234,-0.8064516129032258,-0.4977777777777777,0.1356224852768842,0.4808889702531865,1.2436469494535843e-05,-5.596445268135167,-5.447483033398856,,an0,17770.0
0.0,0.905022154195326,-0.0912130966323991,0.769327846866597,-0.725,-0.5955056179775281,0.0889003223225041,0.2846756268496794,4.6100863432429497e-07,-5.165801393995835,-5.124466263589472,-193.35086354985737,an0,17830.0
0.0,0.8767988089566956,-0.0978621128230663,0.7208876342026035,-0.75,-0.2541436464088398,0.7439053650519963,0.2871936124903946,0.0002422906816736895,-4.23096096380167,-4.349261390399754,,an0,17890.0
0.0,0.8613328013853534,-0.0728266287280789,0.710947233881245,-0.8387096774193549,-0.1573033707865168,-0.2948575524987105,0.5166118745741591,0.0006196386723349476,-3.7528164950014578,-3.8639432110836496,,an0,17950.0
0.0,0.8591054412609077,-0.0292792408576197,0.6826766238542941,-0.736842105263158,-0.4606741573033708,0.0262971728644536,0.4156233652449856,8.745065812709439e-05,-4.790214790476037,-4.894519016285503,-128.3211181412281,an0,18010.0
0.0,0.8692665163630695,-0.0477722355295902,0.761369510556283,-0.7666666666666666,-0.5555555555555556,0.4599419042073321,0.424338221382289,6.985886383681143e-06,-5.399623903090744,-5.321216867201734,,an0,18070.0
0.0,0.894455198103173,-0.1359151227550318,0.6813186567838961,-0.7857142857142857,-0.4933333333333333,-0.5327875813808418,0.5544081617544403,1.4528624945413197e-06,-4.8423212545012495,-4.689265371263877,,an0,18130.0
0.0,0.9140485442102716,-0.1428291348728246,0.7005771990803941,-0.6444444444444444,-0.261437908496732,0.4811039762827727,0.4114867641049377,0.003405321537461838,-4.274606660047142,-4.367604271801053,-76.27081800962571,an0,18190.0
0.9484439902162612,0.9141206556936472,-0.0367023404236773,0.7333399504601462,-0.8409090909090909,-0.4626865671641791,-0.1255272094671224,0.463343763132257,6.833863027573107e-07,-4.775979288565412,-4.630830808186189,,an0,18250.0
0.0,0.9114434621588532,-0.1235931525273701,0.6731823682579826,-0.6170212765957447,-0.326797385620915,0.3201284030752149,0.3644166819581489,0.000290062593778588,-4.12736327252242,-4.385617552507278,-68.08815334382135,an0,18310.0
0.4758084791659998,0.9194775224906164,-0.0492883321021987,0.8084550382486012,-0.6086956521739131,-0.2810810810810811,-0.2211839718951471,0.4501426271334923,0.00017839001457336983,-4.291265164295,-4.26903834027969,-86.21015017146823,an0,18370.0
0.9512912201501704,0.9208845081843248,-0.0346416953038132,0.8602656507763699,-0.3461538461538461,-0.2842639593908629,0.9814790801940292,0.4535784461480368,0.0005883926957510259,-4.16143521650757,-4.084357255362923,-74.55703785205601,an0,18430.0
0.968402908609818,0.9585872300289684,-0.0456953583436482,0.8564032958526647,-0.2592592592592593,-0.308411214953271,-0.0941867600871438,0.3588830620808636,0.0002502118049614624,-4.171968238327943,-4.0693207698391305,-70.55165537743497,an0,18490.0
0.4863508552912396,0.9544272730706136,-0.0461978835101642,0.7234800090869438,-0.6857142857142857,-0.4403669724770642,-0.2176080370564192,0.4387436960988619,3.2090032683782376e-06,-4.892299210822055,-4.900639801433685,-136.90496030543542,an0,18550.0
0.9747309087308238,0.9585239630241074,-0.0398452478437842,0.7850994185799977,-0.3913043478260869,-0.3303571428571428,0.410561909749968,0.4226885732521115,2.1231879173250688e-05,-4.15683705599485,-4.153476282746483,-65.86849225240617,an0,18610.0
0.4882023194879356,0.9606743982931186,-0.0447857321553041,0.7566605350495775,-0.8,-0.2535211267605634,0.1883232556799967,0.5990109430079827,0.00012165302552228338,-4.574623202410306,-4.43667782775505,,an0,18670.0
0.9750044989127686,0.958742755351882,-0.0151103422060945,0.9481206791284986,-0.2448979591836735,-0.1698113207547169,0.1171517670338384,0.5464029080842924,0.005719563685033701,-3.1567378557901224,-3.1579859859994763,-23.506354500622372,an0,18730.0
0.4911256127175594,0.9704187090585314,-0.0376766962684376,0.7254698093499025,-0.5714285714285714,-0.2995169082125604,-0.1252398531329617,0.4277472849412616,8.378819428806699e-05,-4.344416776291825,-4.288237385510352,-82.98174712699117,an0,18790.0
0.0,0.9652351926605426,-0.0612336036276136,0.6739116444850815,-0.7777777777777778,-0.3297872340425531,0.8793312312299314,0.6508550971695476,5.59085581053401e-05,-4.697543559738546,-4.644151629380296,,an0,18850.0
0.0,0.9558122550153292,-0.0763308475799752,0.7486589915677626,-0.6428571428571428,-0.5041322314049587,2.9403920749942394,0.3037233548333186,7.220985753580816e-05,-5.322705382445856,-5.366543775616565,-220.255734662975,an0,18910.0
0.0,0.896206802562196,-0.1367762236206241,0.6326545505749664,-0.7090909090909091,-0.3112582781456953,-0.4522665593352211,0.4422722064445987,0.01986690911193152,-4.543971298740188,-4.740258956328225,-148.3899037428828,an0,18970.0
0.0,0.891015419246707,-0.2486872409093001,0.7411796334354773,-0.7058823529411764,-0.2736842105263158,-0.0291170476424337,0.3312332313114833,0.00304585794427791,-4.21929291381748,-4.218857307846268,-107.56305094767977,an0,19030.0
0.0,0.9265280278103988,-0.2130014437574586,0.8101778878499012,-0.7121212121212122,-0.0794701986754966,-0.1337398768129755,0.3872457307481388,0.6106746832464903,-2.4655469040811004,-2.9817517674347944,-31.54869475664441,an0,19090.0
0.0,0.9519435790655804,-0.1187641630255684,0.7739349218051349,-0.7,-0.2215189873417721,-0.0999794487589823,0.362296068280825,0.009769866186700681,-3.8195270204782616,-4.090912276977818,-119.83052709387714,an0,19270.0
0.9680758846299348,0.9467931410498912,-0.0279866008979464,0.9360363060515348,-0.9411764705882352,-0.2376237623762376,-0.5480475711600509,0.2530451397688472,0.008844907283570364,-4.1792916599823355,-4.127439925662556,,an0,19330.0
0.4828163116851692,0.9429451531739624,-0.0500283301714275,0.7434233317306823,-0.7105263157894737,-0.3630573248407643,-0.0143881891219372,0.3350829051395705,0.00013706662385232029,-5.193866992881584,-5.271530289561967,-208.00660238993913,an0,19390.0
0.0,0.9396943360088784,-0.101540902227149,0.6646395950579338,-0.6341463414634146,-0.3949579831932773,0.3595031437820142,0.247913507812216,4.0380951509184435e-05,-4.9974591341591585,-4.8997286983405415,-168.62064979900836,an0,19450.0
0.0,0.9203746339458488,-0.0627098744505727,0.7908922550607409,-0.8571428571428572,-0.2752293577981651,0.4796949608018145,0.4160557083154999,0.0002699412238265895,-4.8519830600350184,-4.57834955138973,,an0,19510.0
0.0,0.9055787133681168,-0.0733422797266802,0.67813680788464,-0.7105263157894737,-0.3877551020408163,0.1558797794007155,0.3283115988806805,0.0002256234471825363,-4.603047913343492,-4.741950611678968,-100.93849117055686,an0,19570.0
0.0,0.8869915622463833,-0.0722324710329669,0.7274511106425781,-0.6756756756756757,-0.3652173913043478,0.4647336879542422,0.4084145285288298,0.00038355882445747407,-5.113842563389122,-5.149722450838263,-191.87478998072936,an0,19630.0
0.0,0.895204378944998,-0.0710737485612202,0.7937142523532229,-0.7333333333333334,-0.5153846153846153,-0.1587576991739746,0.3863434453111758,2.376868671789225e-06,-5.592521829045385,-5.549189727643902,-298.07226890902365,an0,19690.0
0.0,0.8984948948164753,-0.0670742367054362,0.7222276443368588,-0.7027027027027026,-0.4415584415584415,0.0921905973198157,0.4063802647847406,1.3222805394993895e-05,-5.478842871048336,-5.378197782553233,-246.78427745697306,an0,19750.0
0.0,0.8838227711393561,-0.0325645342221283,0.6129274934525472,-0.7878787878787878,-0.3109756097560975,0.3458501712323846,0.5045270758089272,0.00014674685396309745,-5.34294415163719,-5.095992032794523,,an0,19810.0
0.0,0.8821715958461991,-0.018686862390425,0.79751673433233,-0.8,-0.2808219178082192,0.6519012714648719,0.4928762318054348,0.0014719211609906105,-5.184728470554399,-4.961789290249637,,an0,19870.0
0.0,0.8877862035540063,-0.0435619296909218,0.7014024453594302,-0.7058823529411764,-0.4850746268656716,-0.4348411661307117,0.5341390694611262,1.8837029130316685e-05,-5.6143671485723665,-5.6045485793357575,-298.2037912819196,an0,19930.0
0.0,0.9022308560178462,-0.0259600218529621,0.7536987361292804,-0.7380952380952381,-0.2704918032786885,-0.1359790873604087,0.3783922547766151,0.00039933154988030226,-4.569397722480104,-4.3200685472639275,-135.92632522920215,an0,19990.0
0.7010659149423519,0.8904433229010282,-0.0191947688239655,0.712066675640748,-0.5,-0.5142857142857142,1.5664853264315466,0.4480174924921508,4.119515812433385e-06,-5.183464228410436,-5.183457578659472,-193.50800807153846,an0,20050.0
0.0,0.9056568595814218,-0.0433408974575334,0.7977881334380224,-0.4651162790697675,-0.3727272727272727,0.3091077664335513,0.280637637519438,0.00042802199848110986,-4.621281963627147,-4.7500206368936135,-109.79895914855415,an0,20110.0
0.0,0.9043318566120884,-0.0570784994822373,0.7456396997150886,-0.7837837837837838,-0.5373134328358209,-0.3435726932135672,0.3919568393792509,0.0002903312272094211,-5.211024645881807,-5.0170205295417505,,an0,20230.0
0.0,0.8817911691991426,-0.0528925514066632,0.7922334945341414,-0.8611111111111112,-0.123076923076923,-0.1602968868572078,0.3601251878571892,0.0021688307508169946,-3.188165432457207,-3.1510576607491063,,an0,20290.0
0.4634710516869079,0.8805344435443315,-0.0384412432911674,0.7999610541471214,-0.8918918918918919,-0.2448979591836734,0.2379740752470623,0.3269405783528065,4.713512525800683e-05,-4.2475841635896545,-4.077913076205088,,an0,20350.0
0.4630259972141377,0.8767533240471256,-0.0248779783584315,0.7464163471330291,-0.945945945945946,-1.7702702702702702,0.2587330037227007,0.5234651880470471,3.9774791258563136e-05,-4.764726296783451,-4.891514771605605,,an0,20410.0
0.4622363145141683,0.8719537201105273,-0.0162176539942035,0.8208453285815935,-0.8888888888888888,-0.4210526315789473,1.279150689855733,0.6198134046403125,0.0010904118568330074,-4.707792125440294,-4.663928815661769,,an0,20470.0
0.0,0.8714730594101873,-0.0282627861934635,0.6750880698316173,-0.8823529411764706,-0.3287671232876712,0.6551457749622549,0.454287544660328,0.0009453648060334017,-4.927187930049613,-4.6582132758434645,,an0,20530.0
0.0,0.8742459676294807,-0.0195202060988137,0.6665142657640931,-0.9142857142857144,-0.25,-0.2213409627442269,0.5005349566347782,0.006767821377060992,-4.525448079039353,-4.5452929160474165,,an0,20590.0
0.0,0.8865598349649592,-0.0176050133037999,0.8111263845644737,-0.7096774193548387,-0.1470588235294117,0.5933604153496849,0.5467559153713004,0.013678236093066981,-3.846059520259186,-3.7600643587528824,,an0,20650.0
0.0,0.8863739159274034,-0.0383704913627365,0.7660389095757251,-0.7714285714285715,-0.3839285714285714,0.0924819228505903,0.5000287533447091,0.0001761239165489519,-5.170220999206492,-5.1725921191250706,,an0,20710.0
0.0,0.8745747973559542,-0.0509678326929656,0.5758799601466649,-0.8157894736842105,-0.2980769230769231,0.2601345767116175,0.7116466937645667,0.0007197117932590752,-4.849048390274921,-4.8999484755416045,,an0,20770.0
0.0,0.8749267904143396,-0.039751115249144,0.558792017386526,-0.6666666666666667,-0.4148936170212766,0.0593381337581623,0.48725453936095,3.0130583688305125e-05,-4.895815305882386,-4.996131531705274,-139.72886194541476,an0,20830.0
0.0,0.8842894447599767,-0.0268519514745995,0.8629484487957657,-0.4102564102564102,-0.3431372549019608,0.8008546557529169,0.3258068528147931,0.0003471673897525525,-4.079209007305297,-4.234031507281392,-67.92558986902328,an0,20890.0
0.0,0.9269336678488684,-0.0345943588363416,0.6788125281997802,-0.65,-0.6028708133971292,-0.4660834257666386,0.3677043024442247,1.6493758811409405e-06,-5.47092275628445,-5.4143201859686645,-229.34332775165973,an0,20950.0
0.0,0.9139061933270056,-0.020525793856622,0.6651969939846523,-0.7894736842105263,-0.2766798418972332,-1.999190958214471,0.2275230966213544,0.0004194741348814602,-4.911066684930146,-4.681492370952607,,an0,21010.0
0.0,0.9004789373303924,-0.0315165495810314,0.7834204686035784,-0.5882352941176471,-0.575,2.364127054456039,0.2507131725800051,5.689377472331147e-06,-5.378422453579513,-5.40432457653573,-241.4867640342687,an0,21070.0
0.0,0.9076582902662342,-0.0227397600651466,0.7322423326591012,-0.5609756097560976,-0.5454545454545454,-4.6190729391052585,0.3247207084561568,5.5680469563934845e-06,-5.134633551076683,-5.233851213972215,-186.6577959901425,an0,21130.0
0.0,0.9029061724856942,-0.0982708187674094,0.5927295245851019,-0.7631578947368421,-0.3181818181818182,0.8498960193343648,0.5813175217665747,0.00011810459519584806,-4.839035350746354,-4.816735098914334,,an0,21190.0
0.0,0.9086162628756272,-0.0461178390567241,0.7525210603715304,-0.7714285714285715,-0.4851063829787234,1.031544340633095,0.3498908169987585,1.0518597085747196e-05,-5.401929453854688,-5.332115601896807,,an0,21250.0
0.0,0.933487060838988,-0.0979466028886608,0.7097958211726885,-0.7272727272727273,-0.5478547854785478,0.2693627952065173,0.5283227820448279,7.22774827862256e-07,-5.54732671564923,-5.46996668204084,-305.107679784913,an0,21730.0
0.0,0.9323024595853474,-0.0492822566752391,0.7604211281275193,-0.8163265306122449,-0.3620689655172414,0.2259970719336153,0.2943638172716859,0.001509537689740139,-5.43707759637457,-5.260346198930346,,an0,21790.0
0.4784676639220493,0.9282255464068312,-0.0244593080009105,0.90798512140439,-0.9310344827586208,-0.1801242236024844,-0.1098967690878939,0.3192619989491586,0.03050624111342451,-3.9434682089870186,-3.859366260551563,,an0,21850.0
0.0,0.9294585638427696,-0.0383025210525233,0.8717406616156579,-0.9148936170212766,-0.1591511936339522,-0.1997596682474549,0.5170689833981421,0.05131620373302984,-3.821677848909822,-3.4804475973955933,,an0,21910.0
0.4785475382171354,0.9281712643367253,-0.0124966040381699,0.8083950261915098,-0.9487179487179488,-1.7702702702702702,0.7030409986583555,0.568122825492506,0.00018814241323986515,-4.765747878750395,-4.887222709922952,,an0,21970.0
0.9431103752280888,0.9167649148060604,-0.0490493352966532,0.9251252026126876,-0.5818181818181818,-0.2336448598130841,0.758048027480527,0.6479869162499425,0.0005025787313242164,-3.824128436421205,-3.637239247301324,-58.59267390185347,an0,22030.0
0.0,0.883060340612509,-0.0559154619293353,0.6884336795892583,-0.6842105263157895,-0.4311926605504587,0.5797306322371026,0.4326387316324296,0.00012211325804303345,-5.335452147081539,-5.282314841772767,-223.95803053587204,an0,22090.0
0.0,0.9007498825631104,-0.1556493070563961,0.7610835129296063,-0.5961538461538461,-0.4935064935064935,-0.1173965272282995,0.3935219153093143,5.8941628704978974e-06,-4.85840924721732,-4.794957231524863,-116.07326757725998,an0,22210.0
0.0,0.8902524378911618,-0.0158695809437584,0.8101595904756754,-0.4406779661016949,-0.547945205479452,-0.1614764496921087,0.278341005731769,3.702283412572767e-05,-4.527574487915996,-4.615686242843595,-98.27363630652475,an0,22270.0
0.0,0.9100196428567442,-0.1708040574221595,0.6606176843975532,-0.5961538461538461,-0.6578947368421053,2.054284807212641,0.2433259219453366,1.6435984346370404e-06,-4.889615008172768,-4.9141688601169236,-129.4097698399971,an0,22330.0
0.0,0.9122005452909542,-0.1419975866388123,0.7424771289616701,-0.4893617021276596,-0.3508771929824561,0.425578112926692,0.2752000919187888,0.000597124783270565,-4.500043108427606,-4.552559090022844,-69.40833520729288,an0,22390.0
0.0,0.9141861449684652,-0.0338294734878371,0.8067644793810947,-0.5555555555555556,-0.1827956989247312,0.399276179587447,0.3058729485185178,0.004346342938541844,-3.9666956906832884,-3.9216522762829618,-60.06792806994753,an0,22450.0
0.0,0.9188426472969276,-0.0607864621260352,0.8464491747342401,-0.4375,-0.3867924528301887,-0.6240698285077224,0.3465221453249367,3.513892029418831e-05,-4.556376395074631,-4.4483575809379685,-99.76737740833437,an0,22510.0
0.0,0.9295207988794816,-0.0393079641841676,0.7230275355379058,-0.7027027027027026,-0.3846153846153846,-1.433620077356475,0.4530989390047264,1.3154821354993564e-05,-4.930693197211508,-4.791603440516512,-148.8620297839515,an0,22570.0
0.4807246635500348,0.9386544422487813,-0.0668424616726314,0.6231120352131181,-0.6774193548387097,-0.4607329842931937,0.2209512385198901,0.4628855547122151,6.8117335681495e-06,-5.126862932115141,-5.11816884898528,-175.11276863817025,an0,22630.0
0.9632996980754328,0.9398033429057844,-0.0112208686354849,0.9396593418983666,-0.1864406779661016,-0.3720930232558139,3.3060162937190474,0.4084436166037915,0.0005848901996672665,-4.158820426904805,-4.1055547560453025,-76.6701795840318,an0,22690.0
0.0,0.9467229737337663,-0.0737834091720018,0.7599765532144742,-0.5151515151515151,-0.5492227979274611,1.0049706869052384,0.5123186335863964,1.7798778900072613e-06,-5.102085301886691,-5.105876821609404,-182.5567390504784,an0,22750.0
0.0,0.9401599413021264,-0.1129064263136479,0.6682454331391209,-0.9142857142857144,-0.4044943820224719,0.0260614804672983,0.4930720536918084,9.399360601564799e-06,-5.1662028529095645,-5.060163574500593,,an0,22810.0
0.0,0.9385409069828884,-0.0802613953630114,0.7892114762027862,-0.717948717948718,-0.4050632911392405,-0.9190226289733316,0.4388139380678386,5.0156183021414714e-05,-4.819733770961166,-4.74817954437115,-115.9321285419756,an0,22930.0
0.0,0.9510660781560464,-0.0815385443359017,0.8338763786647526,-0.775,-0.3170731707317073,0.3243616855787013,0.3741840353326798,0.00013949094319268293,-4.462140619082768,-4.474789034458676,,an0,22990.0
0.0,0.9475262891221098,-0.0982970745600634,0.7675464975412262,-0.6585365853658536,-0.328042328042328,0.1037404029142279,0.6002848670242168,0.0003566082215952376,-4.739120919766918,-4.766717574617788,-123.59940140977483,an0,23050.0
0.0,0.933818646738454,-0.1064985273677193,0.6645808022409397,-0.6666666666666667,-0.3841059602649007,0.2120976185550424,0.4697774276919791,0.00015741873714935562,-4.58186171669664,-4.622682710397347,-110.98733636953493,an0,23110.0
0.0,0.9205083079241488,-0.2704995952724998,0.8050733764097158,-0.3442622950819672,-0.2877697841726618,0.1471404006306223,0.4364369864462292,0.00042766955299221586,-3.844980107481852,-3.9667390463060426,-31.621410552296716,an0,23170.0
0.0,0.9503203457358368,-0.2771983818656165,0.8248720555861568,-0.2987012987012987,-0.5416666666666666,-0.0290619369274294,0.6050517386276253,2.223332272900172e-06,-4.276460591585063,-4.426405474412625,-74.6749488174644,an0,23230.0
0.0,0.933736442361504,-0.1881125766081703,0.7491627010616176,-0.5686274509803921,-0.5103448275862069,-0.5102429594377741,0.3564170037917424,1.7844953021779167e-06,-4.833257643256446,-4.650339454279456,-135.36319442607856,an0,23290.0
0.0,0.9277540429913568,-0.1244379238757827,0.7355669874770892,-0.5283018867924528,-0.4657534246575342,-0.2381796919649443,0.3562520799969675,9.84063196134647e-06,-4.641643350778676,-4.571948670618034,-118.9539737328615,an0,23350.0
0.0,0.9140838992545648,-0.0571510214365928,0.8139645034192101,-0.6666666666666667,-0.4831460674157303,0.439533814595227,0.3337772559007047,1.8539380074535978e-05,-4.9760316603637715,-4.967951997939959,-157.0596378291834,an0,23410.0
0.0,0.9106420079397946,-0.0603937395585751,0.6959423854836081,-0.7209302325581395,-0.4417177914110429,-0.7519579501342532,0.4132712816570262,1.0072187649009293e-05,-4.87603244092051,-4.741993536423625,-146.43445221730778,an0,23470.0
0.0,0.9087112970074012,-0.0524155677072123,0.7421676304411685,-0.4821428571428571,-0.6470588235294118,-0.7125194525210684,0.2219453438817406,1.0024760627488855e-06,-4.870745952294193,-4.786634226868963,-139.73533502806998,an0,23530.0
0.0,0.9122946341059056,-0.0397446080702471,0.8574197921663128,-0.4558823529411765,-0.4583333333333333,0.0040301907584453,0.2901514495602315,0.00011654359330163388,-4.3287529553024715,-4.332539335526604,-84.3881230879428,an0,23590.0
0.0,0.93214908123604,-0.030345412691099,0.8545024925771042,-0.28125,-0.3466666666666667,0.5449649789714761,0.2717292970224804,0.001698714548225929,-4.305577068641969,-4.364879148960796,-83.82146277499946,an0,23650.0
0.0,0.9420520736976876,-0.0471813593295164,0.8687197530278005,-0.3166666666666666,-0.3194444444444444,0.2366605243255319,0.3111559369999818,0.0020561409627600207,-4.182536935364472,-4.0858758432505375,-79.64426922149036,an0,23710.0
0.0,0.9400140092920792,-0.0465989182686969,0.8475388148548995,-0.3538461538461538,-0.3355704697986577,0.1954579550197987,0.3706409426235856,0.003250079413555796,-4.136162080298488,-4.262368191035313,-73.2318297829651,an0,23770.0
0.0,0.9478919959876106,-0.0335660892926611,0.9035581881116832,-0.2048192771084337,-0.4647887323943662,-0.4040985030693031,0.389480999055263,0.00011285564233270195,-4.065958392292085,-4.162379635015103,-68.05833147379118,an0,23830.0
0.0,0.9479252753807084,-0.0329956746150362,0.8444027397164175,-0.4655172413793104,-0.3142857142857143,0.0045313294480237,0.3363649179280971,0.0011833089333111828,-3.8782811878304173,-4.077673146889707,-61.116802167664936,an0,23890.0
0.0,0.9432952993740612,-0.0368474617415936,0.8570704567178482,-0.368421052631579,-0.3714285714285714,0.4873322835670441,0.3040468573372168,0.0008846561865519195,-4.280943938326628,-4.238864692239254,-88.46590690245685,an0,23950.0
0.0,0.939021209321009,-0.0326313526859504,0.8525131908343522,-0.3529411764705882,-0.3496503496503496,0.1079783174977417,0.3019867144979742,0.0009095929404753527,-4.076302228904307,-4.233867835928902,-68.33124969554719,an0,24010.0
0.0,0.9343455112662784,-0.0385766690746919,0.8319803945492931,-0.467741935483871,-0.5416666666666666,0.665457718943733,0.3727463018916822,1.2566431712439887e-05,-4.736380486662354,-4.558199380718076,-125.20858358535186,an0,24070.0
0.0,0.9248215159320226,-0.0688916266600617,0.8429879046375126,-0.4032258064516129,-0.3783783783783784,-0.8792432355396373,0.2860631490960125,0.00022951059050880783,-4.494937243923552,-4.327343711756608,-93.13463204717355,an0,24130.0
0.0,0.9370335405691412,-0.0414365016396136,0.8751357363927131,-0.4307692307692308,-0.2857142857142857,-0.1273889411068152,0.2300992537014832,0.000864745352051818,-3.8034043034654736,-3.8905719548697535,-56.55985110282277,an0,24190.0
0.0,0.943166503921823,-0.0337850102833886,0.8970777402427902,-0.40625,-0.4933333333333333,0.1056055503059251,0.4559006501530206,5.819077841045536e-05,-4.475662516890297,-4.61858383372076,-101.28988215202419,an0,24250.0
0.0,0.9497952736549714,-0.0370817430933106,0.9011482578728878,-0.2857142857142857,-0.3333333333333333,-0.0053946019094225,0.5004038340187968,0.0007504016762727064,-3.801077170365347,-3.979145124034494,-55.0059154088125,an0,24310.0
0.0,0.9500983474972172,-0.0387671206200569,0.932842906147074,-0.1829268292682927,-0.4383561643835616,-0.4533070227391955,0.4968489526045192,0.00019788508149499954,-4.205974295314365,-4.25925069253715,-80.60327712428705,an0,24370.0
0.0,0.9430566319765842,-0.0345759500476142,0.8794099995548325,-0.3289473684210526,-0.3888888888888889,-0.018145960801064,0.406818133305793,0.0004861692635759542,-3.9286494000564227,-4.235880004996648,-59.68454591754976,an0,24430.0
0.0,0.9486197787662948,-0.0391103716656352,0.9035083996040126,-0.2467532467532467,-0.4246575342465753,-0.0987725507748355,0.4541260382870086,0.00019960577820232154,-4.30156672687381,-4.306093017483489,-83.82073972451006,an0,24490.0
0.0,0.9409961433016548,-0.0483323080455559,0.7883976370986456,-0.5535714285714286,-0.4347826086956521,-0.0615002735832183,0.2490255241212096,0.00010042388495762812,-4.09892924226509,-4.277996033893877,-70.65900921427456,an0,24550.0
0.0,0.9357291037551512,-0.0513431535461061,0.781418788845316,-0.9117647058823528,-0.1384615384615384,-0.5975627705069956,0.3983475478637597,0.0024661753454194297,-3.457691655043218,-3.3693403874337142,,an0,24610.0
0.0,0.9354963488360404,-0.0400459378586406,0.7822520094572702,-0.9473684210526316,-1.7702702702702702,0.4079528031323048,0.2986454823511802,0.00013777976614186434,-4.764726296783451,-4.903012938444263,,an0,24670.0
0.0,0.933087189635435,-0.0490296988731076,0.7391463424466452,-0.9761904761904762,-1.7702702702702702,0.6630053995562495,0.4749309965883271,0.0001588105268375324,-4.7697654507998255,-4.897811807524866,,an0,24730.0
0.0,0.9307541829613576,-0.0578181878238624,0.7496105386416264,-0.7619047619047619,-0.4409448818897638,-0.6193030505180751,0.3394774808418385,0.00021310583200141018,-4.798217017424515,-4.7546603950467565,-131.76158932007507,an0,24790.0
0.0,0.9266916537425226,-0.0651580354147716,0.6914082515719402,-0.9117647058823528,-0.3013698630136986,-0.1788002159160221,0.6183482600669279,9.91686794137576e-05,-4.657726725637016,-4.471384331638804,,an0,24850.0
0.0,0.9201949131016876,-0.035995391609644,0.8018541487952042,-0.5,-0.5066666666666667,-0.4179659374941181,0.2873550453555709,1.9477878372760388e-05,-4.838355411036339,-4.742877419556689,-136.5603071901192,an0,24910.0
0.0,0.9166324920012104,-0.0319848607976314,0.8928976798671588,-0.3620689655172413,-0.5769230769230769,0.1898786856977724,0.4645341032521358,9.733433600301865e-06,-4.643865365723203,-4.687486377353798,-120.34754743995003,an0,24970.0
0.0,0.9376725945208538,-0.0358361311014245,0.8424225900994307,-0.48,-0.3571428571428571,-0.0369731756999749,0.1779831757644709,0.00035014345117726533,-4.375373508728553,-4.449443798146743,-92.1405690597237,an0,25030.0
0.0,0.9354372385321836,-0.0516437210343521,0.7348549286863608,-0.7954545454545454,-0.3376623376623376,0.2268446541870029,0.4510911605439884,0.00022332426299003083,-4.488280136792802,-4.492770751971558,,an0,25090.0
0.0,0.930064384695948,-0.035895572194581,0.7831833156568905,-0.8974358974358975,-0.3776223776223776,0.5306558230470343,0.2928477434309832,9.074865136093475e-05,-4.768161502582164,-4.680572501700921,,an0,25150.0
0.0,0.9283298530469118,-0.0249690712525264,0.7517399506197479,-0.696969696969697,-0.2873563218390804,0.2983429203060316,0.2904120342704732,0.00595683385218632,-4.796458198930808,-4.79600986249468,-139.33678433655695,an0,25210.0
0.0,0.929424356256402,-0.0345643700663058,0.6813700193352505,-0.6470588235294117,-0.2989690721649484,1.1841938392238731,0.4536159173651697,0.0019508361828345425,-4.689655551295315,-4.856713356304994,-124.10569024803607,an0,25270.0
0.0,0.9033872408771836,-0.0398390279063117,0.7171932600535287,-0.6744186046511628,-0.3364485981308411,0.2106172140424576,0.3548450166609571,0.00042936937316049765,-4.89866180681121,-4.776203385762245,-155.6002873403537,an0,25330.0
0.0,0.8950567879701627,-0.0520700040296464,0.7504801326858024,-0.5,-0.504950495049505,1.2700390900153171,0.3013693473324897,3.559410532968661e-05,-5.061606691503882,-5.1294406569855004,-161.24542493884053,an0,25390.0
0.0,0.9172233176256775,-0.0372716113505457,0.801341311206468,-0.5,-0.4150943396226415,3.2056841516300714,0.483046672320389,0.0017522754986038264,-5.085648634369288,-5.060337711858836,-180.71359849078752,an0,25450.0
0.0,0.9113765136431335,-0.0235146150949877,0.6906982794558082,-0.7575757575757576,-0.502127659574468,1.2245259487939957,0.4471523852387695,1.9916582641097095e-06,-5.356130222438449,-5.320286798291985,,an0,25510.0
0.0,0.9120852719402835,-0.0338200778514772,0.7587018514730737,-0.775,-0.4636363636363636,0.9336167830590548,0.4168467354948534,2.6391289061033412e-05,-5.267089557154503,-5.30777186904633,,an0,25570.0
0.0,0.91227971877875,-0.0249412368651621,0.7402465368624559,-0.5384615384615384,-0.2947368421052631,1.6111046535297613,0.3052150110802377,0.00022373628012456906,-4.559715032161578,-4.317476861906084,-118.49771178430372,an0,25630.0
0.0,0.9113320284424448,-0.0335184314623078,0.7695178332833217,-0.6,-0.4945054945054945,0.4240344305007461,0.3992365178247701,2.1042270557566046e-05,-5.160789761652085,-5.102275836961699,-195.15395893459996,an0,25690.0
0.0,0.9033461842991743,-0.0277213141413295,0.7891810022186674,-0.8108108108108107,-0.313953488372093,0.6415441225500167,0.33475102616351,0.00043987097228615553,-4.62194524752814,-4.56873404577967,,an0,25750.0
0.0,0.9121861403226634,-0.030294666534785,0.7150478410043762,-0.7419354838709677,-0.2040816326530612,0.6211637682538244,0.4101245733695408,0.0041096066316616935,-4.219759125201602,-4.172717018793017,,an0,25810.0
0.0,0.9216904616975984,-0.0484506695783038,0.7936191733245287,-0.8157894736842105,-0.3,0.8606938227026861,0.3029198188664176,0.0001564278114113244,-4.5586052819035565,-4.687581293406213,,an0,25870.0
0.0,0.9249866203898855,-0.0332680207728054,0.719455675262534,-0.8333333333333334,-0.264367816091954,1.3394937367811377,0.4242690823430208,0.00388952825705194,-4.542880040505712,-4.627785673347977,,an0,25930.0
0.0,0.9226770758461952,-0.027254652318593,0.7255143997745405,-0.7647058823529411,-0.3813953488372093,0.3875737923633255,0.5168215323890962,7.795578355021548e-05,-5.111758915138308,-5.122369326693644,,an0,25990.0
0.0,0.9151297955222596,-0.0416106816324921,0.7979826378048337,-0.6666666666666667,-0.4,0.3514319333402361,0.411006897099659,0.0002491700895867342,-5.110171088278014,-5.155543975666506,-186.34045334502298,an0,26050.0
0.0,0.9128055056971786,-0.0163385799241126,0.7907618096905502,-0.7317073170731707,-0.2424242424242424,-0.928313678975204,0.6403812906490349,0.0022519410579951845,-4.359563507037174,-4.322027914618123,-93.04282054626384,an0,26110.0
0.4786455691611638,0.9285463131314722,-0.00633621716619,0.8294916077887963,-0.5,-0.22,-0.092853644007942,0.2966276237709527,0.007271631587810806,-4.098328084734764,-4.182895940324386,-83.26133994265176,an0,26170.0
0.9614619045961846,0.9432668138290832,-0.0093030077083548,0.9031628131169338,-0.5714285714285714,-0.3085106382978723,-1.1765560776265804,0.3007574123719994,0.00011701929699977356,-4.217052694785428,-4.268949253703509,-86.9477890433423,an0,26230.0
0.9702656555123682,0.9531845549938875,-0.0134695211310792,0.9380792038172374,-0.2241379310344827,-0.2,1.9307964535526083,0.4430539050238217,0.00611611470436792,-3.5023214780020995,-3.2420998347795233,-58.04120573045396,an0,26290.0
0.7257445705875619,0.9474347606996744,-0.0112367018437111,0.7834339404323335,-0.5660377358490566,-0.2738095238095238,0.6963835883242223,0.3452795802637062,0.01141914261125756,-4.586553857755947,-4.603519244541887,-114.80538248949186,an0,26350.0
0.0,0.9360374944467016,-0.021282031100099,0.811679919133544,-0.6666666666666667,-0.3915343915343915,0.5513411915283317,0.3908498071556457,5.599250681948818e-05,-4.954220964823625,-4.8735965996637995,-157.3917070623764,an0,26410.0
0.0,0.92793592387038,-0.0186530570387643,0.7308850464563841,-0.7555555555555555,-0.5176470588235295,1.3027617509232143,0.4520552481760729,2.9028012484005268e-05,-5.135086171588235,-5.157993600678321,-183.65370785066915,an0,26470.0
0.0,0.9174386753382366,-0.0291201999982023,0.7918467908197442,-0.5853658536585367,-0.3267326732673267,1.7854370043711347,0.3415544164141266,0.0007522198953888273,-4.746923625791865,-4.763870825563929,-119.66426880124503,an0,26530.0
0.0,0.9257804743830148,-0.0240364471103504,0.7422663825382451,-0.5813953488372092,-0.3125,0.1605675172835395,0.2470500292724286,0.0010559885466477667,-4.456955557093658,-4.580150032998754,-74.82183233201067,an0,26590.0
0.0,0.9249118191135436,-0.0380347137086981,0.6769383781544657,-0.8333333333333334,-0.2718446601941747,1.6765957226685833,0.5142297739518317,0.0017910643601075783,-4.8542169034752085,-4.73024177927912,,an0,26650.0
0.2386096271916628,0.9283261252801692,-0.0476819049612402,0.8063062295356754,-0.5675675675675675,-0.3333333333333333,-1.7663694430096897,0.347236012323858,3.9281855123671355e-05,-4.329596964330507,-4.400963229858059,-79.08354436489185,an0,26710.0
0.0,0.9316417570078482,-0.0234109098143164,0.769499918593687,-0.6857142857142857,-0.34,-1.612728244067808,0.4321398196392391,0.0010993291099350108,-4.975339683721392,-5.049850679607917,-159.48155839742836,an0,26770.0
0.478592741712546,0.9271876981888668,-0.0263988144122186,0.7943463966778463,-0.6388888888888888,-0.3947368421052631,0.7113259859653913,0.4295498629193339,2.5707617897972324e-05,-5.019025267062008,-5.0096378084003526,-174.63922663012437,an0,26830.0
0.0,0.923551074057347,-0.0242942250926242,0.6678187186116038,-0.7096774193548387,-0.2427184466019417,-1.5930256630744382,0.4515308683777302,0.0006659761902633347,-4.563399107262737,-4.580546754156456,,an0,26890.0
0.0,0.9232498328756842,-0.0331376734641309,0.7527579907392292,-0.6944444444444444,-0.2934782608695652,-3.3385385159757814,0.2293062417440072,9.437546240745533e-05,-4.445042854293591,-4.468919368678285,-92.00256776082026,an0,26950.0
0.0,0.9166745603485292,-0.0368239336499981,0.6381430388798109,-0.7407407407407407,-0.410958904109589,-3.504411323915693,0.3162804367662825,2.556646228201729e-05,-4.848733487080407,-4.612131397869927,,an0,27010.0
0.0,0.8985524944094122,-0.0305170478563139,0.5931852144006958,-0.71875,-0.5070422535211268,0.1259242254244591,0.3874500239988557,1.537187130176904e-05,-4.887861766794775,-4.846227350237927,,an0,27070.0
0.0,0.8956175029882829,-0.0391199553881712,0.8299882426280846,-0.5853658536585367,-0.3131313131313131,0.2421050227326041,0.300150746053814,0.00030132966318600674,-4.473124172609986,-4.3140733498714665,-103.67317719163275,an0,27130.0
0.0,0.9148249641810368,-0.0353640184362957,0.736186867598005,-0.5757575757575757,-0.2885572139303483,-3.118542537372722,0.3578933051809697,0.0002453544678494259,-4.335575401851917,-4.396320397325186,-83.59223911515771,an0,27190.0
0.4759255243057246,0.9197517476857489,-0.0307162772600968,0.8455583171608698,-0.5609756097560976,-0.2424242424242424,1.293277899275994,0.5252069088449762,0.000655893173569195,-4.213870989910366,-4.162712997063172,-83.36284807275548,an0,27250.0
0.0,0.9372203344839394,-0.0309888642258923,0.7892738019003073,-0.6923076923076923,-0.5396825396825397,0.6567304732573856,0.2898549788517966,5.044230423856362e-06,-5.0114096375263495,-5.194803344762797,-150.68537678781829,an0,27310.0
0.0,0.9451185412603692,-0.0272628561838359,0.7784666203229278,-0.6896551724137931,-0.3368421052631579,0.4458360659451057,0.3869157137846492,4.290578293879979e-05,-4.729507421977201,-4.708837895584907,,an0,27370.0
0.9646721872961236,0.9451840561483252,-0.0132841319469614,0.9295502702868856,-0.3962264150943396,-0.3225806451612903,3.3438519105536684,0.330687584216847,0.00021451741836396907,-3.826681122127249,-3.8578528694307415,-56.39446198142058,an0,27430.0
0.0,0.9490637675750038,-0.0261168789488358,0.7461225798267025,-0.6097560975609756,-0.2974358974358974,-0.0365223401726726,0.4722994964125273,0.0003100652741195851,-4.4513927826002675,-4.439201989511898,-94.95306617263148,an0,27490.0
0.0,0.949129514523664,-0.0388427258525292,0.8011168527867265,-0.5945945945945945,-0.4134615384615384,-0.146898499760834,0.2837412728917069,5.638450561111908e-05,-5.120240402679117,-5.085069911491913,-189.4672001145024,an0,27550.0
0.0,0.9411594235985776,-0.0219446986439147,0.6545542785534368,-0.5897435897435898,-0.2793296089385474,0.245571346876126,0.4805469814393678,0.0010648090696497295,-4.278490798643681,-4.335121904475225,-88.87009118744734,an0,27610.0
0.0,0.9315256664796469,-0.0184351350610326,0.8092089796994675,-0.6341463414634146,-0.3877551020408163,0.4809812238419986,0.4369663630882419,0.00013559251702876195,-4.928088229910227,-4.871396675057262,-151.6356016243157,an0,27670.0
0.0,0.927580854351676,-0.0252604110587341,0.7370519742839444,-0.6428571428571428,-0.155440414507772,1.8511085139200187,0.4384968290815159,0.014664276367823019,-3.6953639116422274,-3.9160041097432456,-54.66979419467583,an0,27730.0
0.0,0.9308580078698752,-0.0502906435045635,0.7705778492319499,-0.6666666666666667,-0.3611111111111111,-0.2974957965125524,0.3150538382675157,7.106055995467737e-05,-5.084800228859346,-5.073099105807455,-174.72192676669107,an0,27850.0
0.0,0.9232727006703026,-0.0219978003764537,0.7673907853789023,-0.4883720930232558,-0.5502645502645502,0.2654103696754054,0.4008702681404672,1.8671524648842984e-05,-5.06166974326432,-5.139586287074479,-171.76740812501674,an0,27910.0
0.0,0.9258557213507196,-0.036000722869046,0.7687149264492913,-0.6451612903225806,-0.4130434782608695,0.9219530057285172,0.5001400389454964,0.00022745304780657556,-4.955339840217791,-5.047168067295317,-150.10791638377196,an0,27970.0
0.0,0.923167950064966,-0.095546229874356,0.705280667853469,-0.5897435897435898,-0.4883720930232558,0.0496873519037585,0.3139545754475802,8.872287800412194e-06,-4.805871687181884,-4.895139123860531,-86.08801999724588,an0,28030.0
0.0,0.9141181502017502,-0.0198273886414738,0.7635253957076008,-0.7435897435897436,-0.345679012345679,0.1778470166016515,0.4158637775490961,0.0005045177686119206,-4.56680214093607,-4.656747541859299,-106.62778461272079,an0,28090.0
0.0,0.919688245442119,-0.0305424846418756,0.6825214352692021,-0.75,-0.4842105263157895,-0.1422270978028472,0.509046570464982,7.69801562683014e-05,-5.134836079311409,-5.191880503756688,,an0,28150.0
0.0,0.917606716826006,-0.082426087800479,0.645675049735726,-0.7073170731707317,-0.4148936170212766,0.1241991721378861,0.3000869610207272,6.983671065140032e-05,-4.99030829765174,-5.069300246957373,-160.21386653869016,an0,28210.0
0.0,0.907852189934394,-0.0207480726971369,0.6553185403648082,-0.6097560975609756,-0.2869198312236287,0.206356584207392,0.2326584420705967,0.0013154121473897154,-4.463417024320835,-4.542928137310315,-115.20608987018089,an0,28270.0
0.0,0.9006409589276388,-0.0184427390615461,0.7778233464648867,-0.6585365853658536,-0.5480769230769231,3.910437833847532,0.2710755597890447,3.221280759256911e-05,-5.1306321919714275,-5.252891789073836,-182.63616269991675,an0,28330.0
0.0,0.9134810591838584,-0.0289383183622185,0.6522926218847382,-0.6444444444444444,-0.3877551020408163,-0.6550808080982131,0.3601627630536442,0.00021777818599892025,-4.974876002673375,-4.922231002895451,-155.67286869562756,an0,28390.0
0.0,0.9118730269366918,-0.0206537731463857,0.7311893371380106,-0.5434782608695652,-0.5869565217391305,0.3464434289390903,0.2842314456488877,1.218590319377147e-05,-4.981122833387864,-5.112126447460344,-152.40006813357212,an0,28450.0
0.0,0.9146725835059552,-0.0143122225467127,0.6827642922671427,-0.5957446808510638,-0.5444444444444444,-0.0780267561349337,0.2909925232358871,3.055853967477921e-05,-4.941106504364611,-5.053729298905878,-145.4733808507746,an0,28510.0
0.0,0.9136572583069672,-0.0156684846671433,0.6971606258608094,-0.6578947368421053,-0.3440860215053763,-0.3585595174191189,0.4903581278321842,0.00017345963742782796,-4.34617509990201,-4.560897304075605,-82.03741512778991,an0,28570.0
0.0,0.9081242067281972,-0.0244119103106279,0.6438055098520808,-0.5714285714285714,-0.3732057416267942,-0.2697884217730185,0.3160955513266131,0.004161809705140987,-4.986666429374862,-5.024483501064346,-155.51283877252885,an0,28630.0
0.0,0.9146441531786952,-0.0397095763839242,0.7467335884559713,-0.5128205128205128,-0.3793103448275862,-0.3489185430656369,0.3399281726156809,0.0011724698600118183,-4.985189624668027,-4.998150275933951,-157.59405502786785,an0,28690.0
0.0,0.9194385584159668,-0.0258407004767612,0.7044276576917589,-0.7777777777777778,-0.42,2.756999063062751,0.5508294001678902,4.081495293670866e-05,-5.114179569411889,-5.1110267693795235,,an0,28810.0
0.0,0.9107754674636992,-0.0901407917813487,0.6942005474508721,-0.6153846153846154,-0.5393258426966292,0.3593833512373154,0.5047039496182572,1.0099103231517975e-05,-5.32437246212533,-5.193045106815976,-207.68732977371604,an0,28870.0
0.0,0.9055635641137928,-0.0636106114892926,0.7510922608305826,-0.5945945945945945,-0.3711340206185567,-1.0522174535680575,0.5078524381088335,4.169910771478362e-05,-4.843470785954687,-4.7046139307963255,-138.74512929238242,an0,28930.0
0.0,0.9035718396997814,-0.0313229276918656,0.7725239118149944,-0.7333333333333334,-0.3894736842105263,1.4897334131968187,0.3841298084233759,0.0010690034806515561,-5.134779398111955,-5.141472989852048,,an0,28990.0
0.9463838404664704,0.9212555347353184,-0.0188351675326836,0.7980144269664267,-0.4230769230769231,-0.4334975369458128,1.5658046495967617,0.2879568019008899,4.6768023677770475e-05,-4.7506526906082165,-4.824445622589281,-124.54161622205343,an0,29050.0
0.0,0.9287447872969536,-0.0285448377586117,0.7081288659982976,-0.6666666666666667,-0.4615384615384615,-0.15331666189885,0.3883056694533623,3.3035110380947016e-05,-5.094717798718489,-5.081990731218945,-170.9290377679788,an0,29110.0
0.0,0.9262627107461884,-0.0238859062938998,0.7744372631850234,-0.5714285714285714,-0.5789473684210527,0.7407024105826011,0.4803447986948748,6.53090275551183e-06,-5.265817282589892,-5.280516899254383,-212.57141018930042,an0,29170.0
0.0,0.923068063381562,-0.0350703636935463,0.7341117034132979,-0.7575757575757576,-0.4536082474226804,-0.0562655898533417,0.3754665170787637,4.201651396711862e-05,-5.261857523391899,-5.166359240714287,,an0,29230.0
0.0,0.9201223233623396,-0.0363007040473702,0.8089084864123494,-0.7419354838709677,-0.4811320754716981,1.7743592635910022,0.6126565772596478,9.030364528170037e-05,-5.364616105202734,-5.364356585435159,,an0,29350.0
0.0,0.9179647147331936,-0.0352943704810253,0.7677941098428466,-0.6857142857142857,-0.3877551020408163,-1.2678144239288227,0.3228237349249969,0.0001474925447103573,-4.990319597821952,-5.062193010555398,-131.56840116504975,an0,29410.0
0.0,0.9161416917286804,-0.0398089497896416,0.6587096747302984,-0.7027027027027026,-0.3448275862068966,1.154987737033779,0.4483996212696551,0.000728356018623823,-4.749233037380109,-4.7634841780093735,-89.23982984713231,an0,29470.0
0.0,0.9056339095427648,-0.0191333060784528,0.6904970378733736,-0.7777777777777778,-0.3949044585987261,0.8592317528936368,0.2120077493720175,0.0003563426889464763,-4.994566881572913,-4.914972106450152,,an0,29530.0
0.0,0.906233997650444,-0.0287829022531827,0.6908534724974772,-0.8108108108108107,-0.5263157894736842,0.8535254757028452,0.2591641902435351,2.250420218850998e-06,-4.922051289141339,-4.978521017944891,,an0,29590.0
0.4709671874893388,0.9042176169575284,-0.0191059458909523,0.712730000888701,-0.7435897435897436,-0.3101604278074866,-0.2591873849659534,0.4303829328569961,0.00013553623717169131,-4.666628114217748,-4.64514413674597,-127.96721538751694,an0,29650.0
0.0,0.9055158506449824,-0.0508670393172656,0.6697170557920076,-0.6111111111111112,-0.3163841807909605,0.8936498321800561,0.232547582029596,0.0009504188019182269,-4.634970199343239,-4.666332890028488,-120.31332071134891,an0,29710.0
0.0,0.9127269365203448,-0.0291123606292213,0.7735777212123506,-0.7692307692307692,-0.2873563218390804,0.0083570045822027,0.3959537478187702,0.0007598960760538277,-4.634488770823333,-4.626726559109526,,an0,29770.0
0.4742111478939467,0.918815675021784,-0.0449033088152338,0.6426454687686823,-0.7021276595744681,-0.3940886699507389,0.7509032304618636,0.3219663148077076,0.00013267267841631636,-4.822991619033781,-4.974014202320627,-138.25046603254853,an0,29830.0
0.0,0.9145823855024912,-0.0317011071646415,0.7429024656144699,-0.6285714285714286,-0.3669724770642202,0.5285787814214951,0.4084572740035341,0.000256940512807944,-5.107475340381704,-5.037487117159378,-184.23098791176673,an0,29890.0
0.0,0.9033603703981216,-0.0405003211726829,0.68696158628858,-0.7346938775510203,-0.2384615384615384,-0.1196649828386013,0.3075828476408287,0.011021503150272663,-4.253443196282624,-4.287375885998181,-107.74544359968712,an0,29950.0
0.0,0.9013978931323006,-0.0231518352578681,0.7486470875890964,-0.475,-0.5041322314049587,-2.457685333754332,0.2908267033440662,4.5676192021802946e-05,-5.213634829669065,-5.204865743343705,-218.51625215175437,an0,30010.0
0.0,0.900380027235952,-0.0201823431912288,0.6944587684357172,-0.6470588235294117,-0.6379310344827587,0.2572151512941279,0.3651472592711668,1.5220217940823713e-07,-5.5283377466001475,-5.215680514428107,-285.3107589507557,an0,30070.0
0.0,0.9023061930453208,-0.0213166799577544,0.6728082625068638,-0.7222222222222222,-0.5284974093264249,1.067692920174172,0.4365430615946957,0.0008746015793124166,-5.576163490113573,-5.408367141689539,-288.7449188135815,an0,30130.0
0.9296462555096952,0.8840349670617582,-0.0277661236830668,0.714378092378508,-0.6136363636363636,-0.4625,0.2721227801655104,0.2889693958248964,5.4087482727976045e-06,-4.832634745624646,-4.754106727381743,-139.39332085970605,an0,30190.0
0.0,0.8562936681797931,-0.0405239240283012,0.7362848092014684,-0.7027027027027026,-0.3461538461538461,-2.4977765315025646,0.4714327991940416,0.00017827395099999921,-4.1154614494889765,-4.4444539273736625,-71.58471014179173,an0,30250.0
0.0,0.8510547360288954,-0.0239957716894229,0.5863818384732552,-0.6129032258064516,-0.3894736842105263,-2.1372712187868363,0.4150845775634709,9.511667378594155e-05,-4.751167540330428,-4.8811010973076066,-127.33259830032836,an0,30310.0
0.0,0.8946781261820609,-0.0252833342965488,0.8103117095657133,-0.7428571428571429,-0.5894736842105263,1.4873156766920004,0.2824185081067575,2.5367226403956312e-05,-5.578904245442157,-5.357566022643519,,an0,30370.0
0.0,0.8911294025792936,-0.0286073333609118,0.7468412250973185,-0.7647058823529411,-0.4516129032258064,-0.1304956558751559,0.3756584933125146,3.8505456978541086e-05,-5.138475932961787,-5.133345126002538,,an0,30430.0
0.2345570671555103,0.904467230053311,-0.019890431408102,0.9306601815823932,-0.4,-0.0851063829787234,-0.2027968841544913,0.5304085200860951,0.03941966317912944,-2.712660759508446,-2.7858480961647936,-24.917473897381036,an0,30490.0
0.4766648529767833,0.9240751494892696,-0.0193858805892484,0.6875493747823691,-0.75,-0.3350253807106599,0.4287878436185846,0.6284563160187833,5.0637155522527206e-05,-5.010238729391696,-4.93367409145085,,an0,30550.0
0.0,0.9320369678154128,-0.0215985718098617,0.8069930218902727,-0.6470588235294117,-0.3141361256544502,0.1634965330340239,0.5358348620353139,0.0002347222859034447,-4.689435623453899,-4.65953408991752,-131.24127715305386,an0,30610.0
0.9574257545203724,0.9373434159259444,-0.0334630266763357,0.8895253693927508,-0.631578947368421,-0.39,2.2919105000416353,0.2931023375970245,8.054250555702834e-05,-4.9215494588486655,-4.938409338911994,-161.6584061695338,an0,30670.0
0.0,0.9393722903548514,-0.0334709325048567,0.8063952634546403,-0.6,-0.4413145539906103,-0.6237223978294563,0.3250229456646517,0.0001041366841307871,-4.955909146074416,-5.010849175243254,-141.40379823058203,an0,30730.0
0.0,0.9311851100907136,-0.0373585524035172,0.8563866984630796,-0.6551724137931034,-0.25,0.6350819724378617,0.4233331369245385,0.0009409137916056042,-4.292771664050092,-4.314691191964773,-94.797277259898,an0,30790.0
0.0,0.9255988899990356,-0.0364268538854102,0.6930438371493932,-0.71875,-0.4408602150537634,-1.0836596997591768,0.4113763008006261,1.9320980715209307e-05,-4.905134059506944,-4.968482146885334,,an0,30850.0
0.0,0.9271861853530996,-0.0354114063267739,0.7477615613892648,-0.8928571428571429,-0.1308411214953271,0.822195586362009,0.6048373323246062,0.004103161077686741,-3.9511700970905235,-3.6890914189307917,,an0,30910.0
0.4781558556059299,0.9292698987215134,-0.0408949450377884,0.8202990189087,-0.625,-0.4606741573033708,1.002498784257077,0.4704178526414543,2.397219002741258e-06,-4.559672110426665,-4.614599221273033,-109.03913995728159,an0,30970.0
0.0,0.9280605530392724,-0.0419708998566922,0.8191212186173563,-0.631578947368421,-0.3804347826086957,-1.1159404005952236,0.3836881709438,5.089124571349064e-05,-4.669172500841941,-4.720213815705414,-117.07267605435533,an0,31030.0
0.0,0.9318264970700452,-0.0774002316488551,0.7393487997670449,-0.6944444444444444,-0.6470588235294118,-1.453401914945772,0.3475409111751995,1.0415220421013437e-07,-5.058438262588669,-4.999685324593841,-166.52999854930022,an0,31090.0
0.0,0.931424850703848,-0.0438560672218351,0.8710535059862146,-0.4571428571428572,-0.2903225806451613,-3.438506873555653,0.3611116091776645,0.00039859779847431937,-4.029979182613512,-4.0972710080109955,-69.44373521388056,an0,31210.0
0.983440163339457,0.9724002722324284,-0.0595163992875576,0.7437148443757311,-0.6101694915254237,-0.5,-0.0524562178189304,0.3227858405907398,4.730446886686288e-06,-4.506506032460123,-4.555099813051712,-78.63355925597656,an0,31630.0
0.9614712516455152,0.935785419409192,-0.0548274514149939,0.8292319165728589,-0.2419354838709677,-0.3928571428571428,4.308549503467816,0.2600259625617341,0.00044982850394080227,-4.45394697125036,-4.453335989191906,-91.0421143593747,an0,31690.0
0.9726578571943536,0.9544297619905896,-0.0356494778184964,0.8113457226280423,-0.3934426229508196,-0.367816091954023,-1.0261476187145346,0.5100937602300809,2.9355612045001976e-05,-4.254320643845454,-4.286285097477667,-51.04844511492795,an0,31750.0
0.9701632882196638,0.9512048794309848,-0.0549951309277149,0.8225613330601091,-0.3888888888888888,-0.2696629213483146,0.6770082023251568,0.2933076420914308,0.00025350097071655557,-4.235738331821211,-4.185603188027547,-72.2218013278439,an0,31810.0
0.0,0.9416045985084956,-0.0884142682766197,0.7012668876297218,-0.6060606060606061,-0.5252525252525253,-0.7825621205803989,0.3481274821683318,5.536275382234931e-06,-5.340734833378724,-5.303519229247754,-193.84355934883308,an0,31870.0
0.9633917507041034,0.938986251173506,-0.0354508948878311,0.9208601706781084,-0.2096774193548387,-0.2258064516129032,-1.0997163191026431,0.3982285668061199,0.0018709777817167818,-3.5477978130273082,-3.506640046753398,-38.4634370858498,an0,31930.0
0.9766828249848614,0.9614245849973004,-0.028231419193282,0.913672632440813,-0.2692307692307693,-0.4526315789473684,2.2496322785182548,0.4857323619803432,1.1769625645037075e-05,-4.30708757152273,-4.237583986189389,-76.59693490493635,an0,31990.0
0.9707671981857072,0.954439405823918,-0.0204753953871773,0.832270201525382,-0.5833333333333333,-0.4680851063829787,1.3806764181111142,0.2889305275553235,3.720706300600914e-06,-4.9982282677288685,-4.9369332489890665,-141.1992949111155,an0,32050.0
0.968122269065816,0.947091001889748,-0.0462055658452398,0.9346634138272892,-0.203125,-0.3673469387755102,0.6673972582346775,0.3736175387383012,6.391060526066941e-05,-4.173148626927195,-4.023337815788812,-63.89801048547581,an0,32110.0
0.9703675452293395,0.954764763532988,-0.0418147055294938,0.8214200237760539,-0.5581395348837209,-0.3020833333333333,0.6038680273297266,0.4279331991048534,7.172845135435004e-05,-4.3279859494200235,-4.491852204887136,-92.42137195970061,an0,32170.0
0.9754440491136116,0.9591327687104904,-0.0391481289920888,0.8975664038475695,-0.1851851851851852,-0.3163265306122449,3.6497417157412215,0.3301728963136064,0.0001684182025950151,-3.839353709049171,-3.8381252143249553,-50.45228505915192,an0,32230.0
0.9756504615115263,0.959417435852544,-0.0341383719646908,0.856088390030667,-0.3617021276595744,-0.3529411764705882,0.3555329053183816,0.439433819459353,4.181954499997709e-05,-4.5087231343743115,-4.471374683230457,-101.02718658938639,an0,32290.0
0.9777022454176654,0.9628370756961088,-0.0286743463251675,0.9578137689536894,-0.0735294117647058,-0.1634615384615384,0.1933133109652843,0.8058030328344273,0.019281666179668592,-3.266002569902629,-3.173398106447061,-37.059938653181035,an0,32350.0
0.9799410550254296,0.9679261638423756,-0.0615571966518212,0.8142213264631006,-0.2888888888888888,-0.4672897196261682,1.3441834375154305,0.2689989550546078,7.775957946189853e-07,-4.634775451476215,-4.526747895715448,-109.42621391829964,an0,32410.0
0.4899394194775012,0.965222632124999,-0.1209269232332655,0.7749625080617177,-0.3958333333333333,-0.1566265060240964,0.6602233769565246,0.5022666351791473,0.012415159643312168,-3.413698367080047,-3.5287381201447823,-28.4657755516519,an0,32470.0
0.9419981293868857,0.9092102844403016,-0.145842012461737,0.7096084227179353,-0.4516129032258065,-0.3733333333333333,-0.5042482472469357,0.3139551784899102,7.536000086736447e-05,-4.508017639062558,-4.389573403229848,-79.58820142699366,an0,32530.0
0.4753097180964092,0.9263681935057282,-0.058235976210166,0.8010863842050245,-0.5609756097560976,-0.2134831460674157,0.5026470562182156,0.521027080222733,0.0007267364550369872,-3.77883872142557,-3.9657564301267643,-56.6573956675954,an0,32590.0
0.9574968448798732,0.9298652275443532,-0.0267802154343971,0.8988255218187651,-0.3207547169811321,-0.2222222222222222,0.9208032854672032,0.2398373809413485,0.0009117305090037899,-3.7253316630455653,-3.628724454035656,-54.608872524134426,an0,32650.0
0.968968528668585,0.95424699067224,-0.0510056887687918,0.8139606669399739,-0.409090909090909,-0.5876288659793815,-0.0677933862530793,0.4377694398744078,4.322569663679797e-08,-4.667129084238148,-4.7798970355255115,-121.01388558189694,an0,32710.0
0.9699677141233636,0.9505556422879928,-0.0378844223844693,0.9552944687283632,-0.1956521739130434,-0.31,1.596092348941837,0.3608807497957083,0.0001446729902937273,-3.9931093447983885,-3.8531523365330758,-80.86753476378472,an0,32770.0
0.9741777442565472,0.9581372108600064,-0.0355640756088245,0.9286228081438064,-0.3199999999999999,-0.3069306930693069,3.769832417526637,0.2756940301419748,0.00037510941591501845,-4.150224035771587,-3.971929592382432,-75.88727848833643,an0,32830.0
0.973395402322381,0.9579194524522354,-0.0384587425854689,0.94949104599307,-0.1929824561403509,-0.4038461538461538,0.6188320393518165,0.3933128411598061,2.131461046332927e-05,-4.359585966639472,-4.15927510969722,-100.25505613625785,an0,32890.0
0.9784138954372408,0.964023159062068,-0.0170199467106892,0.9282335587143642,-0.109375,-0.2211538461538461,-0.4080530039973546,0.4090159082960692,0.004972490005978958,-3.5484467376078563,-3.4006269772344684,-51.036494167198335,an0,32950.0
0.9737607256559612,0.9602736260654868,-0.0243646102053659,0.8683211767892508,-0.2653061224489795,-0.3582089552238806,0.5084623910838771,0.3603795502880092,0.00011397963506331929,-4.587283888236422,-4.49290749299378,-108.67678089344005,an0,33010.0
0.977944193353032,0.964636535473197,-0.0281569395290629,0.9376546033666892,-0.1833333333333333,-0.2323232323232323,0.5646597411757839,0.3954103907478348,0.0024514285652812587,-3.4759097310004616,-3.4462593764468514,-36.292799489982045,an0,33070.0
0.4721984026916389,0.9565134062262858,-0.2044977253335736,0.7900213610184157,-0.4142857142857142,-0.7702702702702703,-0.1318184630824861,0.5118232325695267,2.350564868264718e-08,-4.597682101242418,-4.543563602744713,-97.37736977786165,an0,33130.0
0.9336419365028168,0.8940552235191908,-0.1482435480554716,0.7155935678505913,-0.5686274509803921,-0.6277372262773723,-0.414027396767381,0.4522764089062798,5.066801961707915e-08,-4.870359522371935,-4.7449582327739055,-145.2313307206286,an0,33190.0
0.939140818010967,0.9287176999799382,-0.0884122783145029,0.7417878855741262,-0.4642857142857143,-0.3380281690140845,-0.1703326142287532,0.2317458664617889,3.40318416264596e-05,-4.191582596387613,-4.158916455299757,-81.81878890744677,an0,33250.0
0.0,0.927889360619027,-0.220667865949338,0.7415657066155223,-0.4324324324324324,-0.4113475177304964,-0.2410302707003563,0.2944403061473543,4.496089048799426e-05,-4.330028372615222,-4.23589280118256,-86.04336415782748,an0,33310.0
0.4792459958571952,0.9277039338750545,-0.0470179979703115,0.8915183811030056,-0.3809523809523809,-0.3111111111111111,2.7842372390075556,0.316218074560137,6.189794801617014e-05,-4.0140797708945595,-3.7556435881029873,-67.06097762899643,an0,33370.0
0.9540910726672586,0.9355667439102086,-0.031749846777103,0.8981449239251369,-0.2830188679245283,-0.4329896907216495,1.7884757136594107,0.2372331076866849,1.8064895588427737e-05,-4.5338063504583275,-4.512373841756386,-111.75657108694439,an0,33430.0
0.969537864403303,0.9538315361817864,-0.0434267749639444,0.8496646040964235,-0.2553191489361702,-0.2788461538461538,0.4899241088774036,0.3308977388584503,0.00015063630231054197,-3.846200594479973,-3.8253878692861405,-54.38460671609643,an0,33490.0
0.0,0.95392859924804,-0.0789676513527481,0.8224649604634079,-0.6052631578947368,-0.3627450980392157,1.0179134597149708,0.3293772777459312,1.3663022506333004e-05,-4.70929166002507,-4.58804029671115,-120.96436602813081,an0,33550.0
0.0,0.9480372356088276,-0.0805943272996586,0.7650347171647212,-0.6666666666666667,-0.4571428571428571,-1.7831766943938396,0.3400800951588695,3.133992450950201e-05,-4.962373450989755,-4.988406439930959,-121.70028127040946,an0,33610.0
0.4758274696299747,0.9283793516407776,-0.0878348202618455,0.7289269744809006,-0.55,-0.475,-1.7935421316076463,0.4635344814781076,3.6220953719046014e-06,-4.621848046382938,-4.6832655973400295,-113.57252766916224,an0,33670.0
