subject,activity,t0,block,ref_rmssd,ref_n,ref_hr,ref_reject_frac,acc_sd,rmssd_app,n_app,rmssd_systolic,n_systolic,rmssd_green,n_green,rmssd_inloop_0.4,n_inloop_0.4,rmssd_app_100hz,n_app_100hz,sqi_full_app,sqi_amp_app,sqi_per_app,mod_median_app,penalty_lt1_frac_app,sqi_full_systolic,sqi_amp_systolic,sqi_per_systolic,mod_median_systolic,penalty_lt1_frac_systolic,sqi_full_green,sqi_amp_green,sqi_per_green,mod_median_green,penalty_lt1_frac_green
an0,an0,10.0,an0_0,11.18921762736373,81,81.2005776067752,0.0,0.011387831883223547,,6,116.49892398547176,12,,3,,0,,6,0.0,0.0,0.0,,0.0,0.9460315592907059,1.0,0.9100525988178432,0.004463216963520341,0.0,0.0,0.0,0.7319689288905562,0.09055910320636928,0.8333333333333334
an0,an0,70.0,an0_0,14.542644749414682,79,81.34435097375945,0.0,0.007448313312627461,96.55103761525992,16,35.45876786846943,11,134.86466016900053,16,,0,139.52928385336025,20,0.0,0.0,0.0,,0.0,0.9458829375822698,1.0,0.9098048959704498,0.0033003680107914456,0.0,0.0,0.0,0.765317401198547,0.07782592784424949,0.6166666666666667
an0,an0,130.0,an0_0,13.894785951220245,75,76.56293664799774,0.025974025974025983,0.005159240879131134,98.93691517120266,41,83.22707434003203,42,111.24479356278921,59,,0,88.55203789091557,42,0.0,0.0,0.0,,0.0,0.6920836911775088,0.3482476177932071,0.9182933747885317,6.964952355864142e-05,0.0,0.9135330000664695,1.0,0.8558883334441159,0.0013639847269973054,0.0
an0,an0,190.0,an0_0,15.065116566949309,75,76.17422568899622,0.0,0.005339137864437846,79.19760021941768,18,130.86000871845255,24,95.61229036815531,19,,0,94.30862975920509,18,0.0,0.0,0.0,,0.0,0.9516347946886345,1.0,0.9198606210263421,0.0003706728992155821,0.0,0.9535269321092676,1.0,0.9232207277557357,0.006738962490448298,0.31666666666666665
an0,an0,250.0,an0_0,16.160112149094655,74,75.31623403766622,0.0,0.0053326686654219515,109.59798697968864,16,47.037478823407405,13,110.71537327854851,19,,0,108.05091392487155,13,0.0,0.0,0.0,,0.0,0.952799004591142,1.0,0.9213367022855856,0.0004418933361150945,0.0,0.9549180565361294,1.0,0.9248634275602157,0.006867477927780005,0.0
an0,an0,310.0,an0_0,16.728359610674758,73,72.55805853983992,0.0,0.10132671663243084,107.65953822989862,21,96.50888479176412,21,96.39498009491989,26,,0,99.65565713997374,17,0.0,0.0,0.0,,0.0,0.70855062118762,0.38682429577480937,0.9220858421397858,0.0002352384491757913,0.13333333333333333,0.953914766483441,1.0,0.9276822940901659,0.004486950185138222,0.4666666666666667
an0,an0,370.0,an0_0,12.39349461133432,70,71.11865495658753,0.0,0.05047066440601984,157.18713111909997,17,85.54343498465101,29,135.91895961810977,32,,0,122.67844146385298,17,0.0,0.0,0.0,,0.0,0.6452673675827447,0.22612599001809633,0.922930563041959,0.00020158814667944972,0.26666666666666666,0.9492129202302868,1.0,0.919110484054303,0.0016053619176801168,0.3
an0,an0,430.0,an0_0,18.83285486192208,69,70.71627334668415,0.0,0.011952659130652328,147.98156010698233,43,121.95336946521104,53,119.14790169656024,45,,0,84.74963126763443,41,0.0,0.0,0.0,,0.0,0.6484909940055763,0.2220264690737121,0.9326178990727496,4.4405293814742426e-05,0.0,0.9505791627479084,1.0,0.9176319379131807,0.0009389653076986011,0.0
an0,an0,490.0,an0_0,19.313527047872064,69,70.1951424961347,0.0,0.014642573225604395,172.2096110102156,45,86.45814877135983,52,120.9601077060119,51,,0,141.71567779654208,49,0.0,0.0,0.0,,0.0,0.6376556310562147,0.2084987901204421,0.925038254889345,4.169975802408841e-05,0.0,0.9483034668644984,1.0,0.9138391114408307,0.0008335996671671202,0.0
an0,an0,550.0,an0_0,23.891116406989994,71,71.7592620277469,0.0,0.037095778409263695,,6,54.910260596267435,11,151.5449263476166,12,,0,,5,0.0,0.0,0.0,,0.0,0.9570352198961,1.0,0.9283920331601666,0.0007260220965973139,0.0,0.9457356632381724,1.0,0.9107569511988689,0.016928298257421544,0.4166666666666667
an0,an0,610.0,an0_1,19.30842586219304,70,71.116884748569,0.0,0.02087430205529321,90.01342673283526,25,88.44785640591707,30,122.90328203050953,32,,0,47.15728494951256,22,0.0,0.0,0.0,,0.0,0.7987442095967191,0.5914925782088547,0.9368355219692391,0.00011829851564177095,0.0,0.9440143987923921,1.0,0.9110711334389998,0.0012361463717901332,0.21666666666666667
an0,an0,670.0,an0_1,25.619148683040557,71,72.44950571324571,0.0,0.013327757900102303,92.22550815711838,32,110.65103860222008,41,118.22457773766841,30,,0,111.74917801880598,34,0.0,0.0,0.0,,0.0,0.6518006610587428,0.23937821995980396,0.9329689990627661,4.787564399196079e-05,0.0,0.9490344564455059,1.0,0.9150574274091764,0.0008990937139527298,0.016666666666666666
an0,an0,730.0,an0_1,15.067852706902045,72,72.18179707410647,0.0,0.015383745485483264,103.92349420721563,40,96.37358067853307,30,100.27450748745592,28,,0,106.62659503721747,40,0.0,0.0,0.0,,0.0,0.7277744615304209,0.4287801768569395,0.9271039846460752,8.57560353713879e-05,0.0,0.9493561409829123,1.0,0.9155935683048538,0.0011913879614968248,0.0
an0,an0,790.0,an0_1,23.10667345744839,69,70.76815291582301,0.028169014084507005,0.007613481428338501,125.86261308331036,23,97.99420688659781,19,99.15231353294377,28,,0,105.21200129924011,24,0.0,0.0,0.0,,0.0,0.9556479419462217,1.0,0.9264824577036006,0.0010335748762374682,0.0,0.9463916610855917,1.0,0.91173634225766,0.015662938561381616,0.45
an0,an0,850.0,an0_1,17.77397348475325,72,73.88903221992854,0.0,0.011146089491596914,113.14647154656437,41,56.04048734255359,34,128.491282839051,29,,0,116.586877477699,41,0.0,0.0,0.0,,0.0,0.7299994624685109,0.43351833296730335,0.9275284632527071,8.670366659346067e-05,0.0,0.9490801316503503,1.0,0.9179985075421957,0.00130675150559692,0.21666666666666667
an0,an0,910.0,an0_1,15.285298429197317,72,72.34973863656626,0.0,0.012453706096025438,87.86892093126556,17,69.66994409497806,20,139.13051356437774,21,,0,84.8528137423857,10,0.0,0.0,0.0,,0.0,0.9625500735592692,1.0,0.9382123871033897,0.00041147136359224177,0.0,0.9497586412180248,1.0,0.9187418611524028,0.004492564701049837,0.3333333333333333
an0,an0,970.0,an0_1,19.15570519607263,69,70.6551498772454,0.0,0.044263563199807524,101.78546953291375,36,114.6572914726631,37,147.93669255310238,45,,0,102.48429295765426,34,0.0,0.0,0.0,,0.0,0.6657944521885917,0.2515595077666235,0.9273698628846366,5.1770127074694816e-05,0.1,0.9496119444469486,1.0,0.9160199074115809,0.0009856860683082377,0.1
an0,an0,1030.0,an0_1,18.66286009429543,71,72.20668441346207,0.0,0.15776996604403815,,7,,2,,4,,0,,6,0.0,0.0,0.9192611881431141,0.3543007848936795,0.6,0.0,0.0,0.9242532320223464,0.419308893968558,0.9333333333333333,0.0,0.0,0.9066587641859718,0.33496281196562444,0.9833333333333333
an0,an0,1090.0,an0_1,20.921009672551627,72,72.36544549977592,0.0,0.035447584259228004,,9,,8,,6,370.0519917018418,11,,9,0.4757329882245301,0.5,0.9191366345943237,0.02321466207250385,0.5833333333333334,0.0,0.0,0.9262478928623651,0.05450836467316088,0.8833333333333333,0.47239440659642995,0.5,0.9090504858645033,0.0282700240184147,0.7166666666666667
an0,an0,1150.0,an0_1,25.178294203805194,68,69.35053226533236,0.0,0.02032489698331068,,6,,3,,5,122.8658970008901,10,,6,0.9519221343343363,1.0,0.9198702238905605,0.012112840371160975,0.38333333333333336,0.477926791090235,0.5,0.925759807540045,0.022850663186974235,0.6,0.9450743284122463,1.0,0.9101549314340498,0.014353157486998626,0.4166666666666667
an0,an0,1210.0,an0_2,28.083734649251532,68,68.52154488675232,0.0,0.029618403274383982,,4,,5,101.97970329683682,24,118.13343710142806,18,,4,0.9521848121698299,1.0,0.9203080202830498,0.009125525122542898,0.2,0.9515502813295819,1.0,0.9263449598392601,0.017800688657154437,0.45,0.9312730297565129,1.0,0.902463283604945,0.010232501331059572,0.26666666666666666
an0,an0,1270.0,an0_2,20.20057203345171,71,75.69487898913428,0.0273972602739726,0.08681426507030811,138.4378527083543,20,162.8087725786649,15,137.7572168027868,26,167.78696558526977,17,153.46967510381518,18,0.9464327658027738,1.0,0.9117170974521396,0.018259757870407935,0.4666666666666667,0.0,0.0,0.8953803452541282,0.03636991917631561,0.75,0.9346965827553498,1.0,0.9019690939749228,0.014754887526707264,0.3
an0,an0,1330.0,an0_2,13.132355371937287,79,77.56156772609911,0.0,0.021274792046341105,,3,113.15396345000225,10,89.13664354476485,35,,3,,3,0.47346855289672535,0.5,0.9115618429890845,0.024207300889208586,0.55,0.46915412915413374,0.5,0.8972325725994256,0.02684580113865192,0.8166666666666667,0.9585868719285968,1.0,0.9309781198809948,0.00726745590683908,0.08333333333333333
an0,an0,1390.0,an0_2,11.923893709438905,76,82.14716253431118,0.06172839506172845,0.09050530698007304,,7,,7,106.89552460605435,15,,3,,7,0.0,0.0,0.9134979804869703,0.06782303520014571,0.8833333333333333,0.0,0.0,0.8948955107075622,0.07288697528232416,0.9,0.9699927966745587,1.0,0.9511248004902311,0.014206925446319178,0.36666666666666664
an0,an0,1450.0,an0_2,12.474895463521793,76,76.64616807482511,0.0,0.052470755896072085,156.88348146893128,29,126.3980945804864,30,84.93504396624745,32,156.88348146893128,29,155.10365197874245,29,0.9473725491670938,1.0,0.9122875819451562,0.006336372201529353,0.15,0.9430883967350987,1.0,0.9064072354139744,0.01350611205142263,0.38333333333333336,0.9713572541817257,1.0,0.9522620903028762,0.009945758071782641,0.2833333333333333
an0,an0,1510.0,an0_2,13.961875387594125,69,69.7522747960621,0.0,0.025107614730338058,144.41903371718246,33,116.16504716057314,34,139.0223657976093,36,144.41903371718246,33,145.2906569604529,33,0.9541327751947155,1.0,0.9261861292772098,0.005642098753553361,0.06666666666666667,0.9614165023663028,1.0,0.9364473824180037,0.011430122298231319,0.3,0.970618447119941,1.0,0.9522596608640038,0.00862839566965833,0.16666666666666666
an0,an0,1570.0,an0_2,22.95128605635045,68,68.27713461348512,0.0,0.03185725760039015,152.23520438593394,25,115.21442610355612,40,125.99072087929802,28,152.23520438593394,25,153.41935992566258,25,0.9636245015655623,1.0,0.9441101935085986,0.007939095661295317,0.1,0.968647226133621,1.0,0.9493384241945821,0.016220081227048717,0.2833333333333333,0.9732366673800263,1.0,0.9558805132248653,0.00903771208427025,0.16666666666666666
an0,an0,1630.0,an0_2,16.171325289561114,67,68.3415665937342,0.0,0.01539462107045075,124.10158914004016,49,119.90386268888722,59,119.25832357976341,46,124.10158914004016,49,122.74635093014646,49,0.9682089033630727,1.0,0.9470148389384545,0.0036124703814780917,0.0,0.9745844170083804,1.0,0.9576406950139673,0.007473429925814899,0.0,0.9701350662551489,1.0,0.9502251104252482,0.008120172310031622,0.0
an0,an0,1690.0,an0_2,20.6615823997524,66,67.18947544057278,0.0,0.010354716780379056,114.63206405842179,35,110.67156136475526,44,103.94430924307308,52,114.63206405842179,35,116.50549090821731,35,0.972631747119876,1.0,0.9543862451997933,0.0036746679445025534,0.0,0.9744528019137367,1.0,0.9574213365228945,0.0067304347256882955,0.0,0.9758342291129172,1.0,0.9597237151881952,0.007153242228795598,0.0
an0,an0,1750.0,an0_2,23.94096653597004,72,69.72459366540554,0.0,0.0692592527478348,230.29112473276476,12,61.10844321684495,12,118.36402645061274,38,230.29112473276476,12,228.69193252058542,12,0.9699418304327401,1.0,0.9503366660024554,0.012223488212688491,0.31666666666666665,0.9737505407334812,1.0,0.9575559702612536,0.01790306286299044,0.45,0.9729521891619319,1.0,0.9561835370692204,0.00795754238693842,0.25
an0,an0,1810.0,an0_3,31.04594081271813,79,83.22675684748451,0.024691358024691357,0.08604372134005742,243.26191298610453,12,,7,,9,,8,243.68384883249482,12,0.4754031042203014,0.5,0.9256091090288396,0.028991583924038552,0.8166666666666667,0.0,0.0,0.9521165956252361,0.04843365819183722,0.65,0.9665952291907475,1.0,0.9451453415466032,0.015320513480027682,0.38333333333333336
an0,an0,1870.0,an0_3,17.07513138624679,79,81.44991712471563,0.024691358024691357,0.062103378195603264,,6,,8,114.30272849240662,18,,5,,6,0.4758071664928472,0.5,0.9180103474010047,0.020799705214462234,0.5666666666666667,0.0,0.0,0.9443369054717562,0.03885746614446137,0.7666666666666667,0.9609515041528435,1.0,0.9381842696021424,0.017920849922272983,0.4166666666666667
an0,an0,1930.0,an0_3,13.40296888603965,76,76.5577101589048,0.0,0.06023297224768853,,6,222.4391302506523,13,120.62661916011739,36,,6,,6,0.4740770016957234,0.5,0.9131965282221335,0.021966310685007553,0.5166666666666667,0.0,0.0,0.935301992833617,0.036847312494964465,0.6333333333333333,0.9629059208378701,1.0,0.940889801343715,0.012125318851651343,0.2
an0,an0,1990.0,an0_3,17.80437470926859,72,72.9086163402794,0.0,0.04254821262623393,143.1818103530341,19,178.4566843647064,19,180.44364315033485,27,143.1818103530341,19,115.30011989177991,18,0.9372228124846567,1.0,0.9034299710014719,0.00994275076488324,0.35,0.953490971558696,1.0,0.927136826228903,0.01854113921674666,0.4666666666666667,0.9621004490748734,1.0,0.9393174281895683,0.014494838230418491,0.35
an0,an0,2050.0,an0_3,22.529736552252178,70,70.96808151394096,0.0,0.023727372375950476,177.17330741219175,21,123.39164136638637,23,149.8697351035225,33,177.17330741219175,21,177.73575892318348,21,0.9350078139150226,1.0,0.8916817919031479,0.010202876697489273,0.18333333333333332,0.9522999055832055,1.0,0.9218350768070147,0.017826231823354827,0.43333333333333335,0.9594681001230652,1.0,0.9332136593838233,0.013654105679525129,0.31666666666666665
an0,an0,2110.0,an0_3,21.611012744092665,69,70.70010781764482,0.0,0.02310458977036419,172.14112919164612,17,173.57944972734262,18,125.06610394034712,49,172.14112919164612,17,171.64643893771873,17,0.9467932343701457,1.0,0.9125658493110059,0.007927330960086704,0.16666666666666666,0.9604400749266023,1.0,0.9358034277999667,0.01339508847394329,0.3333333333333333,0.9695184801557739,1.0,0.9494739205921661,0.008395891569636625,0.1
an0,an0,2170.0,an0_3,11.458405654723958,95,102.7346244792462,0.0,0.16758982114804358,127.10970769448953,15,165.68868805819673,15,81.2878778765562,47,110.30952223639956,12,166.03839917320332,17,0.4791821873418122,0.5,0.9246449423564869,0.021094167009311843,0.5833333333333334,0.4755984182878977,0.5,0.9249579535191397,0.029486019764792704,1.0,0.9503868128417154,1.0,0.9188814157358703,0.009278362493475786,0.08333333333333333
an0,an0,2230.0,an0_3,22.7602487509021,97,103.84898972243083,0.058252427184465994,0.23368966518270595,122.79491043916235,22,230.65626199589002,13,105.91629581301453,46,79.4255586309551,15,115.36897329871667,21,0.4728306948983563,0.5,0.9076603013974612,0.026970953916793952,0.7666666666666667,0.0,0.0,0.9112601461503301,0.03949106422202063,0.8333333333333334,0.9666229346413793,1.0,0.9443715577356322,0.00728718012602879,0.1
an0,an0,2290.0,an0_3,17.952113738549304,95,103.22420814136598,0.08653846153846156,0.38205626784261376,102.32751408535677,28,199.5107992188248,20,65.73651239988321,26,97.64756905860767,10,101.7603675985553,30,0.0,0.0,0.8961240835883493,0.035753093990607776,1.0,0.0,0.0,0.9105121565347394,0.06039392857931776,1.0,0.9653060238958349,1.0,0.9425169216391454,0.01659313839610238,0.43333333333333335
an0,an0,2350.0,an0_3,21.106650928413988,92,104.16865599865045,0.10679611650485432,0.3711294596504888,132.64235424865242,51,,8,52.685602949498204,47,122.79301690242812,26,134.59569086712992,51,0.0,0.0,0.9367579170079693,0.03120239135277117,1.0,0.0,0.0,0.9226363112498525,0.04497953052186695,1.0,0.9689984737703393,1.0,0.9529207892586168,0.010149740456151963,0.38333333333333336
an0,an0,2410.0,an0_4,6.857663058163217,104,110.5795103539275,0.04587155963302747,0.26909789302923975,100.09455978442335,21,,9,107.0860811141315,18,,8,99.02019995940222,21,0.0,0.0,0.9314086514727646,0.04848946031856989,0.95,0.0,0.0,0.9396915702460377,0.0977384880815242,1.0,0.4877315578531208,0.5,0.9592165337631687,0.024082259316262303,0.6
an0,an0,2470.0,an0_4,18.00759295472027,96,100.93873019075257,0.010309278350515427,0.11198896965367716,,5,,6,94.10275894505659,36,,4,,5,0.47866333053613885,0.5,0.9288777684537961,0.026200489587416977,0.7,0.0,0.0,0.9378461969136623,0.0455205563525648,0.8666666666666667,0.9665065484828559,1.0,0.9441775808047598,0.011777106699611673,0.11666666666666667
an0,an0,2530.0,an0_4,11.267050072712749,72,94.30314689600773,0.22580645161290325,0.327690400090254,125.49373092239456,39,176.44550419469698,13,75.02334894703289,47,129.0406926326484,23,124.45882853377658,41,0.47706389219304174,0.5,0.9260553569808814,0.02963333127600192,0.8833333333333333,0.0,0.0,0.936175818981409,0.04414850287285199,1.0,0.9579019481209486,1.0,0.9304625914809869,0.007732124234581541,0.08333333333333333
an0,an0,2590.0,an0_4,54.57032816107539,74,99.68209717843014,0.23711340206185572,0.3743196329159375,100.02975021329591,17,259.9996661322643,10,101.83330453790526,42,,1,100.4987562112089,17,0.0,0.0,0.9268368800921141,0.034403426596498844,0.9833333333333333,0.0,0.0,0.9379266422723341,0.0559037023162546,1.0,0.9551434090000465,1.0,0.9257798656635181,0.009654158407478543,0.25
an0,an0,2650.0,an0_4,20.200691192071492,83,100.00066667112462,0.17000000000000004,0.3651233474489185,94.54954196301887,16,143.47921895634025,15,69.34373122277047,61,59.15529526875285,10,101.70422803403996,17,0.4817237451956308,0.5,0.9372149009925068,0.02325987988943342,0.6,0.0,0.0,0.9347267454379261,0.034353455859897714,0.9666666666666667,0.9679195836555754,1.0,0.9477643042771651,0.007625955222414245,0.13333333333333333
an0,an0,2710.0,an0_4,5.131881313448513,106,113.3527670355079,0.036363636363636376,0.21722740972820298,93.32586349386219,11,208.98086468115835,14,103.36702881992315,52,,8,100.44899203078147,11,0.48287896409916653,0.5,0.9429298803305551,0.0227315994433816,0.55,0.0,0.0,0.9310539284115376,0.03707409547000967,0.95,0.9683674672407618,1.0,0.9485682702874796,0.006381169188512115,0.03333333333333333
an0,an0,2770.0,an0_4,7.730705531288343,93,95.94320162460711,0.0,0.03926357490823602,,8,,8,73.62827287529133,62,,7,,8,0.9630196714074003,1.0,0.9411956722715249,0.01269924109586294,0.38333333333333336,0.7120597194696537,0.75,0.9217536014902817,0.02046934634835138,0.5,0.9683405018562998,1.0,0.9477913322745768,0.00524229061801571,0.08333333333333333
an0,an0,2830.0,an0_4,10.688629156405323,83,83.18971553277251,0.0,0.03225749902346843,140.85538853205307,17,,8,65.36406457297466,56,149.01204596860617,16,140.49021318227116,17,0.9360704714329624,1.0,0.8934507857216041,0.018221790901887833,0.4166666666666667,0.0,0.0,0.9118945924494505,0.03080810192158356,0.5333333333333333,0.9808346076065548,1.0,0.968057679344258,0.00750898882284388,0.0
an0,an0,2890.0,an0_4,9.985502162417452,81,86.68766434535006,0.0357142857142857,0.16924735656114478,185.3617497529746,17,275.6304112022936,12,109.46796644262345,43,,9,185.06755523321746,17,0.46335517801671827,0.5,0.8778154499528726,0.021714310224237622,0.6166666666666667,0.0,0.0,0.9157900738723352,0.03558647770160317,0.75,0.9725769833851434,1.0,0.9545476689793987,0.009290993302375244,0.08333333333333333
an0,an0,2950.0,an0_4,7.0801198049535525,87,88.04237773115571,0.0,0.20909747551407312,178.7168074514118,11,,9,135.21118223757728,46,,5,179.5271567200907,11,0.4640413431921092,0.5,0.8874266057656046,0.027328411950262074,0.6666666666666666,0.0,0.0,0.9196918043980707,0.03513931200568517,0.7833333333333333,0.9687715125481394,1.0,0.9479525209135657,0.007565540887951154,0.08333333333333333
an0,an0,3010.0,an0_5,6.964100262003577,88,88.79417510211913,0.0,0.17735563951847308,,6,242.1875,14,115.8404724911129,36,,3,,6,0.0,0.0,0.8909380766356129,0.03484072486114494,0.75,0.0,0.0,0.9198732461592698,0.056640343617929904,0.8666666666666667,0.9573642862012449,1.0,0.9289404770020748,0.008574100090228203,0.16666666666666666
an0,an0,3070.0,an0_5,11.831961621389814,75,75.32086689295022,0.0,0.01581115339925407,138.87803777055606,16,163.90741678167487,19,76.97212746631173,72,142.30007259929528,18,134.90737563232042,16,0.9345526285352277,1.0,0.8909210475587128,0.004796354127190527,0.08333333333333333,0.9450921953238118,1.0,0.9092639734579169,0.007851320662552137,0.11666666666666667,0.9694014069142123,1.0,0.9490023448570205,0.005351538483758319,0.0
an0,an0,3130.0,an0_5,17.042812296820436,70,71.39869447487177,0.0,0.02172453195697167,160.0874259302467,19,141.84941491037836,16,99.63809328659929,65,160.0874259302467,19,156.59572862061793,19,0.9391684350554014,1.0,0.898614058425669,0.005293381358903563,0.1,0.9400734365473218,1.0,0.9001223942455363,0.007896715231668457,0.1,0.9803707444393037,1.0,0.967284574065506,0.005892207872680039,0.0
an0,an0,3190.0,an0_5,21.46506585797722,70,69.74096462215799,0.0,0.029186801776698492,87.42124165958506,15,183.0289088456091,15,139.88114796483228,44,75.46555226940914,14,90.790181973918,15,0.9445029631012926,1.0,0.9075049385021543,0.005902554631512078,0.18333333333333332,0.9397321063245612,1.0,0.9106363689728032,0.00927606309610713,0.4,0.9727807465470752,1.0,0.9550119888997397,0.007440569176841171,0.1
an0,an0,3250.0,an0_5,14.772438620604833,66,67.77099503067446,0.0,0.017498724879448473,172.36750774346783,10,179.63523487382167,14,125.07593179855898,46,172.36750774346783,10,174.16467303484174,10,0.9524936567632185,1.0,0.9253044387162142,0.005803419044779337,0.08333333333333333,0.946237791950958,1.0,0.9103963199182633,0.00927566038197834,0.25,0.9698400613238722,1.0,0.9497334355397871,0.006391564950854514,0.0
an0,an0,3310.0,an0_5,12.950594010040023,67,67.39869134206884,0.0,0.026434075431788363,157.21058892718816,16,141.49039278339714,13,183.65021465314828,40,162.51395029405498,15,182.69228387711203,18,0.9625275342884213,1.0,0.9375458904807021,0.006669722316320629,0.15,0.9585271907245814,1.0,0.9311400757889174,0.01074225780824267,0.35,0.9721087696022014,1.0,0.955077140495797,0.006910664151936724,0.16666666666666666
an0,an0,3370.0,an0_5,15.791698195259078,65,66.85490035277886,0.02985074626865669,0.020648072772144768,200.12454474633157,18,123.81220193779049,20,135.24811042342168,34,194.68649678714237,16,197.05179969923105,18,0.9603846147046494,1.0,0.9341213174313394,0.005444315077689978,0.13333333333333333,0.9547682550153379,1.0,0.9261692230567304,0.011022387770464048,0.2833333333333333,0.9655901309552823,1.0,0.942810731839505,0.007372782816697675,0.1
an0,an0,3430.0,an0_5,12.835906667780867,66,66.72902122983407,0.0,0.020222705594632694,160.59000176623516,18,188.11747285605875,16,123.38914313002223,28,160.59000176623516,18,138.67015455643613,18,0.9591834489182685,1.0,0.9319724148637807,0.010212366485209231,0.2833333333333333,0.7152544993022492,0.75,0.9251152694917205,0.019767662066864485,0.5,0.9652893892729851,1.0,0.9421883032571295,0.01181136685997514,0.21666666666666667
an0,an0,3490.0,an0_5,16.247682765505633,65,66.13508752977054,0.0,0.02437317548099314,198.07784974303294,18,197.90810014355287,19,109.90637964618713,23,198.07784974303294,18,189.938070402527,18,0.9597008142975089,1.0,0.9328346904958481,0.00870088464765957,0.0,0.9588632283218352,1.0,0.9314387138697254,0.01878380948911776,0.38333333333333336,0.9703875343812113,1.0,0.9508846993094539,0.011501689609870573,0.3
an0,an0,3550.0,an0_5,19.176474398053067,66,66.86384070358811,0.0,0.018658194775918336,157.62969728377266,22,115.85519828695084,24,136.95161366444032,18,148.02574469919077,21,160.68037160207783,23,0.9602745339268413,1.0,0.9337908898780688,0.01019970092421122,0.23333333333333334,0.9595015497553588,1.0,0.9351661331200419,0.01608211913865817,0.43333333333333335,0.9702057381074034,1.0,0.9509458805293324,0.011775836462912283,0.3333333333333333
an0,an0,3610.0,an0_6,15.99029153695386,65,65.74571529693107,0.0,0.023744060551843815,131.25878360159157,19,147.95356970706214,21,172.1362046124175,37,131.25878360159157,19,192.24436204175692,20,0.9631473746471713,1.0,0.9385789577452854,0.009530376858640083,0.16666666666666666,0.9638213890332995,1.0,0.9447313652156218,0.01876870465258034,0.48333333333333334,0.9709317029337469,1.0,0.9518698963770269,0.009207683937680403,0.1
an0,an0,3670.0,an0_6,20.288374027425288,61,65.56173292772516,0.06153846153846154,0.015326857366723224,220.893170389239,17,141.8135535989949,17,131.2395647709961,42,220.893170389239,17,220.97378071777177,18,0.9590652319287782,1.0,0.9318318954198329,0.00707556734029551,0.08333333333333333,0.9667847877701914,1.0,0.9447959141542268,0.013554446860003117,0.23333333333333334,0.9663017990410734,1.0,0.9441801364448763,0.007687788368442796,0.08333333333333333
an0,an0,3730.0,an0_6,21.92477919231609,66,65.97466572836727,0.0,0.020440335003590316,220.49917779458553,18,213.86632996183891,27,135.25262575704224,54,220.49917779458553,18,211.06870919205434,15,0.9594021455897755,1.0,0.9323369093162925,0.004461613849545973,0.0,0.9677720720846528,1.0,0.9462867868077547,0.00834284869645626,0.0,0.972598124871577,1.0,0.954330208119295,0.006823240822329744,0.0
an0,an0,3790.0,an0_6,20.749411704383448,66,68.37450998267813,0.0,0.028644615409340875,200.97490446387755,18,77.42744139228388,19,154.79794037308764,26,145.34714808702387,17,152.4180107467618,17,0.9548299444094033,1.0,0.9291867933512903,0.017056617584730233,0.4666666666666667,0.0,0.0,0.9369182865986292,0.03204405318454956,0.5666666666666667,0.9698210247740643,1.0,0.9550915279488791,0.016512209335610782,0.45
an0,an0,3850.0,an0_6,28.067473498835493,65,65.01506724181681,0.0,0.01458219846584632,132.6975605583049,21,126.96638081247195,18,153.0882468958752,42,132.6975605583049,21,162.46538092775333,21,0.9601933047199666,1.0,0.9340220790907605,0.004915821937573252,0.21666666666666667,0.9624246772992548,1.0,0.9403234834365044,0.010103095212023572,0.3,0.965955566390583,1.0,0.9438568134182468,0.007926576933067206,0.16666666666666666
an0,an0,3910.0,an0_6,20.69791881331542,65,65.9529821190678,0.0,0.011468625873413886,171.4871657336596,23,87.78205099314152,17,138.90608732908169,48,175.2243990709111,22,178.15479346563373,24,0.9633471271572452,1.0,0.9413949552166586,0.007663827721715786,0.18333333333333332,0.9640857662938404,1.0,0.9465241681849619,0.013608402396683553,0.3,0.9691534236268795,1.0,0.9559337594791149,0.007231187171478998,0.2
an0,an0,3970.0,an0_6,21.781348129769498,67,67.15909205386225,0.0,0.036213736420555726,205.29688233344737,16,89.15230608658172,10,181.83060923836476,50,205.29688233344737,16,203.76457003120046,16,0.9642227102954279,1.0,0.9417696694806552,0.007726594605445962,0.15,0.9699634947185612,1.0,0.9499391578642687,0.014133898168308023,0.3,0.9672454368792499,1.0,0.9481541992207007,0.007931444296338283,0.21666666666666667
an0,an0,4030.0,an0_6,20.085329136548424,66,68.0459196547766,0.0,0.02700023046262697,209.2428065270903,13,217.4368207863007,14,135.29140841521394,19,179.14319734851782,11,170.5872210923198,10,0.9575247694077085,1.0,0.9365462827818585,0.015409480512576016,0.43333333333333335,0.2404723718328057,0.25,0.9440577716499398,0.029932349116534175,0.6,0.9630703011977138,1.0,0.9390886800906901,0.012309771532739112,0.4166666666666667
an0,an0,4090.0,an0_6,25.168616803628414,65,65.51648831624323,0.0,0.027501943646164616,224.60541210272146,16,158.28749679183446,11,185.31605709064988,51,219.9641628869245,12,228.2688473416087,16,0.9563071225522298,1.0,0.9271886676006987,0.007308824366138531,0.16666666666666666,0.960740005335085,1.0,0.9350903935089414,0.012845863669145776,0.3,0.964960008841342,1.0,0.9421232055460425,0.007752188653084445,0.1
an0,an0,4150.0,an0_6,20.49329794982468,63,65.14191165454773,0.03076923076923077,0.027972483846104738,211.315544423272,14,145.5412346263508,21,143.60021890813297,63,240.88893578510525,19,213.5235530153704,14,0.9498997459230567,1.0,0.9164995765384278,0.007210007341773765,0.0,0.9637127570060857,1.0,0.9395212616768095,0.011370909655927002,0.06666666666666667,0.9701527794464674,1.0,0.950254632410779,0.006371018823464603,0.0
an0,an0,4210.0,an0_7,25.617043949688565,63,64.75782193539601,0.0,0.025050286592509335,258.8335435997636,15,143.72209550590034,22,158.34927909752267,40,224.45646969314424,17,178.26082877885167,14,0.9498744976444669,1.0,0.9164574960741114,0.0064136533958961805,0.11666666666666667,0.9601455821774281,1.0,0.9336445899433499,0.011733584810849431,0.16666666666666666,0.9707910267427529,1.0,0.9513340119480761,0.008482383026844245,0.11666666666666667
an0,an0,4270.0,an0_7,26.905221716380275,65,66.31585578948943,0.02985074626865669,0.026938891830415042,197.78812986181984,19,141.2156157868012,23,214.4290505233219,25,198.80155639111433,18,176.01804720305378,18,0.9487241412365706,1.0,0.9148542213095467,0.014037238371533249,0.4166666666666667,0.4824195676154132,0.5,0.9414317174981389,0.025749594465038533,0.65,0.9639289071730434,1.0,0.9458919331657827,0.016840620068086225,0.4166666666666667
an0,an0,4330.0,an0_7,25.86563109703293,63,63.02858661544351,0.0,0.029359512945269634,174.62291963685638,26,163.45684338209122,33,224.92577675807462,29,171.23014683049755,25,201.37985538242438,27,0.9476701521874252,1.0,0.9253827565167501,0.010870212355126804,0.26666666666666666,0.4854440646819639,0.5,0.9462071263289961,0.021199375365990265,0.55,0.9582413088496377,1.0,0.933789372511279,0.01584438845838944,0.38333333333333336
an0,an0,4390.0,an0_7,20.332197699886272,62,62.265789825969215,0.0,0.027382495064506632,,8,219.14823444580676,15,197.6844605721566,34,,6,,9,0.47865011011568515,0.5,0.9307388980142303,0.02889714299717041,0.6666666666666666,0.0,0.0,0.9378655265728499,0.046101213579629416,0.8166666666666667,0.9564754865504614,1.0,0.9279380751968975,0.010995388856209024,0.08333333333333333
an0,an0,4450.0,an0_7,12.55574977207783,62,62.99510213080272,0.0,0.03638296960349654,247.37838853965653,12,151.6354170244556,19,198.04512004756083,55,217.70116864207458,11,213.23695739716416,11,0.9571692410125776,1.0,0.929177701157374,0.011783616748743984,0.25,0.9513553960835023,1.0,0.9217181342952088,0.01640207157230957,0.35,0.9590078386317976,1.0,0.9317404093262311,0.006563019556204363,0.016666666666666666
an0,an0,4510.0,an0_7,18.44530437072469,63,63.5622173467984,0.0,0.03221259673774967,165.0269272535546,11,159.108468686278,14,188.5665351265777,29,,5,167.30212192318422,11,0.0,0.0,0.9192461906741239,0.03435253709335043,0.65,0.0,0.0,0.9179817155821511,0.05177662142811976,0.85,0.9649587110898911,1.0,0.9423723974204092,0.015313255863293636,0.3333333333333333
an0,an0,4570.0,an0_7,21.50810957981287,63,64.43444278703656,0.0,0.04001385441985414,,6,,7,203.99640308275812,33,,4,,6,0.4750816977234975,0.5,0.9178627349897486,0.025036598065658396,0.65,0.0,0.0,0.9152233161037145,0.03063852213669572,0.6666666666666666,0.9635453803147016,1.0,0.9417725545752161,0.007585712522962641,0.25
an0,an0,4630.0,an0_7,26.21405401937257,63,63.816548694676804,0.0,0.018643011539435695,190.67742299148023,17,232.59180275235258,15,155.4955107039601,42,166.083778902647,16,188.62992869637628,17,0.9525556759971323,1.0,0.9217635795204151,0.0191909062988869,0.45,0.70993419404301,0.75,0.9109050328845462,0.020404102759892788,0.5,0.9649172120147531,1.0,0.9415286866912552,0.007237166664660933,0.0
an0,an0,4690.0,an0_7,22.719619065520003,63,63.28639943628178,0.0,0.016320037098029944,195.11150372012557,15,234.9452198068651,14,168.03838188478943,61,195.11150372012557,15,200.67742416980684,15,0.9502281172135025,1.0,0.9170468620225042,0.00901522903188778,0.16666666666666666,0.948056307862893,1.0,0.9134271797714884,0.008460762441628814,0.13333333333333333,0.9691018732722188,1.0,0.9485031221203646,0.006409055615542447,0.0
an0,an0,4750.0,an0_7,16.763162766970726,61,62.045324109224715,0.0,0.030747426341302307,212.7485088394108,22,252.1551115294566,27,201.18406473124486,57,204.4412691329005,20,214.10945131604336,22,0.9497690552749494,1.0,0.9168125744737664,0.010146170139696379,0.21666666666666667,0.948296795419971,1.0,0.9153930144441013,0.009779353946667329,0.2,0.9642153859815468,1.0,0.9403589766359113,0.007405085892700615,0.0
an0,an0,4810.0,an0_8,15.76783299301589,62,62.558420441569226,0.0,0.030545832618985504,311.08522073486404,12,144.64997235379315,17,141.3330338193011,49,322.33545644929444,11,307.955132505311,12,0.9491541961786076,1.0,0.9152569936310128,0.01548265272854666,0.26666666666666666,0.9362307715682927,1.0,0.9117480719755537,0.015297848531150245,0.35,0.9664804327008114,1.0,0.9447665443478301,0.007090323224731829,0.08333333333333333
an0,an0,4870.0,an0_8,15.03484888126422,61,62.43736751568174,0.0,0.02475828665373875,152.93798812527106,10,,8,166.68214587878163,47,,9,164.01219466856725,11,0.9462241872499071,1.0,0.9115710588472992,0.01627166572916921,0.4166666666666667,0.9316892669632281,1.0,0.8880043926879413,0.017398084206174,0.45,0.9667684429653189,1.0,0.9446140716088649,0.0062725810101376695,0.15
an0,an0,4930.0,an0_8,16.711335176619198,63,63.77503568745046,0.0,0.021266032671710657,114.57795269735877,12,,5,221.43648898125113,33,114.57795269735877,12,103.05338422390601,11,0.948315856817505,1.0,0.9138597613625083,0.014072671070012296,0.3333333333333333,0.4664749803065194,0.5,0.8882499343550647,0.022949153138266468,0.6166666666666667,0.9611005201655042,1.0,0.9375937762011346,0.009077555867436918,0.23333333333333334
an0,an0,4990.0,an0_8,13.314002729759482,63,63.34339085615379,0.0,0.01907501744227944,148.0051268643252,11,191.6673743193458,10,194.32787525900284,36,,6,170.29386365926402,12,0.0,0.0,0.9173024444000315,0.040264099814329435,0.7166666666666667,0.0,0.0,0.8884761723583137,0.05410182684131988,0.85,0.9586063128357281,1.0,0.9310105213928801,0.011086739581569662,0.0
an0,an0,5050.0,an0_8,18.410894715491782,65,66.42738048051224,0.0,0.025165802470867884,235.7770563742367,11,176.14256846964432,13,206.48058115384558,53,271.24731617859544,12,233.40951137432253,11,0.9518208448728565,1.0,0.9212830604379585,0.012943258587001804,0.3,0.9359921563946871,1.0,0.8933580020722622,0.014762408817232887,0.3,0.9548931515165944,1.0,0.9248219191943239,0.005367911851398107,0.0
an0,an0,5110.0,an0_8,23.908925267596448,66,67.13639766229659,0.0,0.04198276784532481,289.3235396723755,20,,6,132.99619649166664,36,248.0268815761207,11,286.8705925014017,20,0.2374003812310847,0.25,0.9165078503672384,0.028942527250121357,0.5666666666666667,0.0,0.0,0.9019008966726051,0.037992800048920125,0.6833333333333333,0.9613780641874855,1.0,0.9495775754788386,0.012003182725747606,0.4
an0,an0,5170.0,an0_8,19.94043423983516,65,65.63136829376586,0.0,0.025631905213069895,193.29486710473836,14,201.94468772671803,13,168.7815895413722,50,193.29486710473836,14,197.5474626513841,13,0.9523951562871293,1.0,0.9214088427940227,0.01214698075751405,0.23333333333333334,0.9402378503662029,1.0,0.9033509172558822,0.018167040122934797,0.35,0.965847457842451,1.0,0.9430790964040849,0.006611340250447604,0.0
an0,an0,5230.0,an0_8,17.85915229499419,64,64.64594225499994,0.0,0.02442274252976327,222.93810180311692,14,,8,159.41616349540516,33,,9,221.51575738360188,14,0.47472847151178077,0.5,0.9196205897675267,0.02907425976536026,0.7,0.0,0.0,0.9148191649438058,0.03641810093640742,0.7666666666666667,0.9597451784828713,1.0,0.9329086308047856,0.007817443094978626,0.31666666666666665
an0,an0,5290.0,an0_8,19.75390535102266,64,65.59531299626103,0.0,0.05107538134410875,314.28526510891874,10,228.128567323706,10,123.60131295578515,34,,7,320.9188197798454,10,0.0,0.0,0.9114907105221288,0.04853912983648456,0.6,0.0,0.0,0.9194285846388113,0.03658343727065431,0.5833333333333334,0.9606115957276722,1.0,0.9369315482085003,0.008557146836788706,0.2833333333333333
an0,an0,5350.0,an0_8,23.291242435500575,66,67.37515383994341,0.0,0.026624610955292827,247.45688042657966,12,196.32092608843456,18,151.48999554426027,39,,5,244.31723044212228,12,0.47315440964700023,0.5,0.910514698823334,0.029168854609627197,0.5833333333333334,0.47643127593161305,0.5,0.9211557815456518,0.020622475092500776,0.5333333333333333,0.968252821907805,1.0,0.9470880365130083,0.0067442122972559415,0.13333333333333333
an0,an0,5410.0,an0_9,20.542182491428157,68,68.63708484573611,0.0,0.021205551162088308,253.4082991123767,10,,7,124.6638546658824,49,245.93869122964367,11,,9,0.4746559483331258,0.5,0.9149998965158668,0.023558194245379548,0.65,0.9503074486945772,1.0,0.9189312028507989,0.015541095686101982,0.3,0.9680911941142656,1.0,0.9468186568571093,0.006993999604611726,0.0
an0,an0,5470.0,an0_9,18.09924836238223,71,71.17665690361864,0.0,0.0444451494705549,,8,169.0102160373745,11,191.43839221564963,32,,1,,8,0.0,0.0,0.9136780778746678,0.053347967213107875,0.8,0.0,0.0,0.9184292667522526,0.034544238499523615,0.75,0.9624849537814788,1.0,0.9374749229691313,0.010511987430323555,0.21666666666666667
an0,an0,5530.0,an0_9,16.531278861087845,71,70.363321008045,0.0,0.055809672336546774,258.2199011716779,10,229.48013598675595,11,158.1647593070205,23,,0,273.09339061939966,11,0.0,0.0,0.9146726012134488,0.06720002753925211,1.0,0.0,0.0,0.9145943987393437,0.0394628279654191,0.9666666666666667,0.9602563040096075,1.0,0.9341069039128262,0.013529830282181455,0.21666666666666667
an0,an0,5590.0,an0_9,20.452166662194788,69,69.74976110708407,0.0,0.11068167484836706,200.80349518615773,12,173.324850804061,11,157.39812553482014,11,,0,197.9898987322333,12,0.0,0.0,0.9134395261968004,0.09606041563923698,1.0,0.0,0.0,0.9210654243923023,0.05811877586404034,1.0,0.7192507001389843,0.75,0.9315536831894238,0.02026274507520765,0.5
an0,an0,5650.0,an0_9,15.490124433111399,65,66.24190882679788,0.0,0.029842092545229643,181.93790077821424,10,,9,180.55581638936823,33,,3,183.06040290327974,10,0.0,0.0,0.9130658396408851,0.07424451625254828,0.8666666666666667,0.0,0.0,0.9221597320987573,0.04632815760518842,0.7666666666666667,0.9586988503294025,1.0,0.9315697753461032,0.014020651676935784,0.26666666666666666
an0,an0,5710.0,an0_9,17.255665639726523,70,69.67403005038604,0.0,0.0663987777174334,141.01027469459254,10,,7,207.3920794277713,21,,3,146.17341299520467,10,0.0,0.0,0.9129458685923136,0.0755270348781775,0.95,0.0,0.0,0.9208616420740072,0.060222112025554955,0.9333333333333333,0.9588639261329837,1.0,0.9314398768883061,0.014196273847067493,0.23333333333333334
an0,an0,5770.0,an0_9,15.483016184873602,77,77.68176886565416,0.0,0.0659674791393907,259.4857889073819,12,,4,130.16519467689292,33,,1,263.57679577824615,12,0.0,0.0,0.9104573733094555,0.051489916149296835,0.9333333333333333,0.0,0.0,0.91736221358616,0.04664959633616308,0.9333333333333333,0.951106173619189,1.0,0.9193991772694428,0.008336352655486608,0.21666666666666667
an0,an0,5830.0,an0_9,9.362713512655107,85,85.05245610226774,0.0,0.2688525162490197,261.2570691943935,18,257.8125,14,151.87175197012235,40,,2,259.16154398821004,18,0.0,0.0,0.9007451352021986,0.039671913545567886,0.85,0.0,0.0,0.9143569010708603,0.03084818789389302,0.8333333333333334,0.9582037365976876,1.0,0.9310019980826855,0.009769853907492614,0.05
an0,an0,5890.0,an0_9,13.61772654481875,78,78.6944589264205,0.0,0.038082561750587725,,5,,9,150.00105006352885,32,,2,,5,0.0,0.0,0.9012026145278547,0.04376899293562042,0.9,0.47217931579214395,0.5,0.9111260724601157,0.027141440938207115,0.7166666666666667,0.9585494667975876,1.0,0.9310019980826855,0.011463541065272836,0.11666666666666667
an0,an0,5950.0,an0_9,19.904123705987253,67,68.3048445210874,0.0,0.02841170754453802,,8,210.21287573552672,10,179.59042408799846,22,,3,,8,0.0,0.0,0.9012363491547386,0.05650244254970859,0.9166666666666666,0.0,0.0,0.9062312330771032,0.03977433578291917,0.8666666666666667,0.960190492032584,1.0,0.9341343507793629,0.0141960997473564,0.08333333333333333
an0,an0,6010.0,an0_10,23.67935865760207,65,65.64695069912098,0.0,0.02886316099268656,214.73718948257425,11,,7,156.13158391629838,34,172.97234921729543,11,213.19005605327843,11,0.4719682600429477,0.5,0.9069804281934084,0.028448765700770717,0.85,0.9418916242407012,1.0,0.9050414376853401,0.01627292379299839,0.31666666666666665,0.9578685160193263,1.0,0.9297808600322106,0.009543216678419321,0.0
an0,an0,6070.0,an0_10,24.20268592771636,64,65.23288411434116,0.0,0.020692125076868156,244.38269249401645,13,192.41149113200817,15,165.4371452037235,39,219.80771070983837,11,243.73824757992608,13,0.4741760278514636,0.5,0.9167976000496703,0.025389628203336602,0.65,0.9439246820650371,1.0,0.9068920984004477,0.01476431207566446,0.25,0.9573108650642614,1.0,0.9351746832561139,0.008814658881507155,0.06666666666666667
an0,an0,6130.0,an0_10,26.41906577511185,63,64.15102005464676,0.0,0.023607414669287632,216.4151257735996,18,227.08484411037287,18,138.270750007965,34,213.3623848162189,15,215.82945336810837,18,0.47654656994177275,0.5,0.9212036576509428,0.02664649852977383,0.6,0.9463854096155144,1.0,0.9172250040561822,0.014683389418098592,0.36666666666666664,0.9656363112541186,1.0,0.9427271854235311,0.00891851146292584,0.16666666666666666
an0,an0,6190.0,an0_10,15.64237164150619,62,62.87083971866368,0.0,0.019589702540544443,279.1078723846451,13,212.67549336610372,17,209.04825250405707,32,,7,280.08927148321834,13,0.2383592600887834,0.25,0.9249712522951599,0.02991253461389541,0.6666666666666666,0.9501334958053642,1.0,0.9187669149449357,0.01800189856233439,0.4,0.9654592779316405,1.0,0.9424321298860676,0.00997983896218277,0.18333333333333332
an0,an0,6250.0,an0_10,19.856133007656457,62,62.06326211748743,0.0,0.021667222448094495,246.82031225998733,18,180.69597192097535,23,141.84251920848223,53,231.96679449869544,16,246.61234165958427,18,0.9556189828965145,1.0,0.9288362958663814,0.018600748787213118,0.4666666666666667,0.9547769509027284,1.0,0.9247150381071609,0.011766200774288787,0.13333333333333333,0.9634424019717751,1.0,0.939196140286513,0.008581223299927006,0.05
an0,an0,6310.0,an0_10,15.052702520879675,61,62.650884212844765,0.0,0.025174748520673848,173.5975472131951,17,340.25208944986656,16,148.09849058516073,52,173.5975472131951,17,172.73534670124698,17,0.9577222908850973,1.0,0.9295371514751622,0.016789432219923198,0.21666666666666667,0.951097431556678,1.0,0.9188373310363449,0.011295125558206583,0.13333333333333333,0.9698234627494492,1.0,0.9497057712490821,0.008378719621584192,0.03333333333333333
an0,an0,6370.0,an0_10,16.731568927817445,62,62.3716508372692,0.0,0.025561275108385396,178.20950115547524,28,155.75395591241357,29,209.16927689031453,42,178.20950115547524,28,190.11130343119447,27,0.9598530462289216,1.0,0.933088410381536,0.012409166290600144,0.21666666666666667,0.9521225837081246,1.0,0.9203232242407411,0.007923168200191198,0.1,0.9682227427769589,1.0,0.9470379046282648,0.008064065512862078,0.0
an0,an0,6430.0,an0_10,18.20762897795081,60,61.1348150034973,0.0,0.015546950402131573,196.24776073563234,11,206.666509156526,10,171.58849613461794,50,202.0705805683994,10,195.03845774615837,11,0.9593488395491321,1.0,0.9337084747678928,0.01667622218278067,0.36666666666666664,0.9477996459212413,1.0,0.9129994098687356,0.010015853950570443,0.03333333333333333,0.965129645588872,1.0,0.94188274264812,0.007312259716822143,0.0
an0,an0,6490.0,an0_10,16.50701447045442,60,61.92675819098603,0.0,0.016740159511447666,207.20069716641882,16,140.05962736902453,11,130.7436910922155,46,207.20069716641882,16,203.15839469077653,16,0.9574834750235597,1.0,0.9304145881229435,0.017280288876678956,0.31666666666666665,0.949272104060849,1.0,0.9179724636867719,0.011029487719359715,0.2,0.9691953306471941,1.0,0.9486588844119901,0.007331568576506799,0.0
an0,an0,6550.0,an0_10,15.666007993846428,61,60.488749092700374,0.0,0.019007395771758157,285.6142868158617,16,270.2040967606709,16,134.12601406737272,48,285.6142868158617,16,287.0075492619198,16,0.9524827118786636,1.0,0.9222361121545912,0.01832483952494651,0.4666666666666667,0.9497172868163257,1.0,0.9172957082316816,0.011217492872983643,0.23333333333333334,0.9716212437480349,1.0,0.9527592362852485,0.008471288901223645,0.05
an0,an0,6610.0,an0_11,14.217981691317588,60,61.500741083959305,0.0,0.018841660936631567,245.0095556507896,20,248.41679215135167,15,163.84173269375853,44,235.48298156083257,18,241.1922142411034,20,0.47802034269967675,0.5,0.9203198462586216,0.021911446813567534,0.5666666666666667,0.9450130422953267,1.0,0.9083550704922111,0.012773634300480674,0.05,0.9679935639099928,1.0,0.9470473717102816,0.00808775866021989,0.06666666666666667
an0,an0,6670.0,an0_11,14.847504568081291,61,61.71734689472085,0.0,0.019267232911997327,283.1748369492777,16,282.45087691370014,12,167.71318574760636,46,237.5612024910155,12,280.64212085857673,16,0.9503991016817764,1.0,0.9179115758437477,0.01836515381416904,0.43333333333333335,0.9448380927582473,1.0,0.9080634879304121,0.01057577973773522,0.0,0.9671150478244439,1.0,0.9451917463740731,0.006857912003204987,0.0
an0,an0,6730.0,an0_11,16.360590530687197,61,61.43575356070672,0.0,0.012843055488294175,,9,217.286602634997,12,191.41194415728458,29,,7,,7,0.47440977919657884,0.5,0.913908912142266,0.02113473270519238,0.5666666666666667,0.9500676140598148,1.0,0.916779356766358,0.01178142844305698,0.18333333333333332,0.9658937574303273,1.0,0.943156262383879,0.0077986585459503335,0.08333333333333333
an0,an0,6790.0,an0_11,12.454006079381601,60,60.67111352221806,0.0,0.017446401185364186,206.0809827443174,12,270.7215242536072,15,164.70383306966752,45,280.5898368624223,14,212.179169571379,11,0.9465228383779993,1.0,0.9154834456310533,0.017323958504789558,0.48333333333333334,0.948523684504807,1.0,0.9142314162532721,0.009861571805886298,0.1,0.963653439121251,1.0,0.9394223985354184,0.007843774927111722,0.08333333333333333
an0,an0,6850.0,an0_11,21.79893436427115,63,63.62469910816934,0.05970149253731338,0.047226089284142916,,7,220.12680560730217,11,178.64116941711472,22,,4,,7,0.2376354979074252,0.25,0.9187917599312942,0.028839666249289346,0.6666666666666666,0.9445491328496025,1.0,0.9095871387966066,0.016268290707348334,0.35,0.9644114708014745,1.0,0.9419306440830473,0.010403836120905903,0.26666666666666666
an0,an0,6910.0,an0_11,37.1222633881412,73,74.58669646817293,0.026666666666666616,0.04582441160758169,227.49311525402427,14,,9,234.44352068557444,20,,7,225.30321449446402,14,0.0,0.0,0.9214028449970815,0.03774164033997773,0.9,0.47367691362406317,0.5,0.9122563787468773,0.020790103355577016,0.6666666666666666,0.957678794574155,1.0,0.9307935341913665,0.014224585227867372,0.016666666666666666
an0,an0,6970.0,an0_11,41.75150502776021,55,76.3771759539307,0.3820224719101124,0.3429507808139787,251.81801954408516,20,251.48858206896332,14,165.13373815091344,19,,1,252.1799691531928,20,0.0,0.0,0.9250300726353804,0.05897834104346415,0.9833333333333333,0.0,0.0,0.914027003041156,0.03715413445859474,0.8,0.4757390600244664,0.5,0.9173200359582032,0.02018663662381391,0.5333333333333333
an0,an0,7030.0,an0_11,30.76794640760359,82,104.36751978418222,0.18811881188118806,0.30768507160380304,206.39396806128647,16,225.6053449321,12,142.53798664467922,17,,0,204.18945451059253,16,0.0,0.0,0.9125516991120396,0.06449734843023677,1.0,0.0,0.0,0.9088521340171624,0.04068376708647965,0.9666666666666667,0.47605257601244105,0.5,0.9199395566418992,0.021402347932391957,0.65
an0,an0,7090.0,an0_11,17.35622589335888,88,94.20039564168125,0.022222222222222254,0.08049628284135402,200.57155743718445,10,221.39858622939533,11,303.251825916803,11,,5,202.86832072937253,10,0.0,0.0,0.9076327623665381,0.04601930131314834,0.9,0.4715416895700755,0.5,0.9051389652335848,0.02921872826088026,0.6166666666666667,0.9408161157092968,1.0,0.908154149306461,0.014616027215892221,0.36666666666666664
an0,an0,7150.0,an0_11,17.466079243445638,72,72.38596194913242,0.0,0.014969432079269507,204.30845151235178,11,276.55097472846467,19,177.31296385988753,28,201.90438543868976,11,204.35263639111682,11,0.7101050312500305,0.75,0.912721985942713,0.020028011172409606,0.5,0.9433492599537056,1.0,0.9055820999228426,0.011819531628212901,0.13333333333333333,0.9405539224966822,1.0,0.900923204161137,0.008152676194845679,0.0
an0,an0,7210.0,an0_12,20.65090291616796,65,66.22275347585166,0.0,0.012282346124839135,282.30350353971073,12,166.55473129162377,13,158.61010537586736,41,317.1635527358523,10,284.3333510959531,12,0.4744246644084662,0.5,0.914748881361554,0.027329319490231804,0.6166666666666667,0.9429287076676247,1.0,0.9089559192832145,0.01830784468993581,0.4,0.940878250868063,1.0,0.9014637514467717,0.007941777783911199,0.0
an0,an0,7270.0,an0_12,22.950292559489046,68,72.35990368897929,0.02857142857142858,0.06055453693772728,,8,,9,119.70338552235984,18,,5,,8,0.0,0.0,0.9229758901337104,0.05062901201352102,0.7833333333333333,0.0,0.0,0.905669477888867,0.04512073485927717,0.75,0.9645829319816507,1.0,0.9431167348555719,0.012213136535611891,0.3333333333333333
an0,an0,7330.0,an0_12,12.473184788458784,69,74.27967287232788,0.07999999999999996,0.06723920238312413,,8,,7,254.22322628887042,19,,6,,8,0.0,0.0,0.9220496460739876,0.05366351295948376,0.8166666666666667,0.0,0.0,0.898611162719776,0.031851557374599555,0.6666666666666666,0.7205477541029061,0.75,0.9356044757161326,0.019704110290288387,0.5
an0,an0,7390.0,an0_12,13.961239691925927,70,76.23641165377141,0.05405405405405406,0.06506145367509691,,5,217.98912812945258,10,166.19399119202032,16,,2,,5,0.0,0.0,0.920088420969181,0.04529581124075949,0.9,0.0,0.0,0.8855350317666615,0.0342052636185183,0.8333333333333334,0.9529220364553943,1.0,0.9253396467456803,0.011637191802167332,0.2
an0,an0,7450.0,an0_12,25.010108804294347,63,63.04010926949276,0.0,0.022231028368159746,184.57461828090467,13,,5,145.15621136138316,38,,8,180.6931099959265,13,0.4746850667056644,0.5,0.9160098971644539,0.020945144286473087,0.55,0.9210472742265022,1.0,0.8716361108084427,0.013939320029565517,0.26666666666666666,0.9511853759183415,1.0,0.9186422931972359,0.008817132085840756,0.0
an0,an0,7510.0,an0_12,27.52138864277721,59,60.29569006404041,0.0,0.023568902055513763,73.88677582870369,10,132.02893858923505,11,192.56111288879097,34,,8,78.4573486395988,10,0.9477010688784597,1.0,0.9143073732827776,0.01970769253119716,0.43333333333333335,0.9134035175796669,1.0,0.8556725292994447,0.013323279314265078,0.23333333333333334,0.9589466901466907,1.0,0.931577816911151,0.008476531907092907,0.0
an0,an0,7570.0,an0_12,28.706457233347393,58,58.825980494276884,0.0,0.013573479186439192,237.9337196109131,14,,7,142.26751337850544,32,,8,237.40585178453048,14,0.0,0.0,0.9155252415142485,0.03141631935101667,0.6833333333333333,0.4563504491217552,0.5,0.8516529835731673,0.021271101296418543,0.5333333333333333,0.9650254009689114,1.0,0.9417090016148524,0.00926217159316771,0.0
an0,an0,7630.0,an0_12,16.313591284296866,57,57.120770444935786,0.0,0.025363525387397695,209.75044780670586,12,,4,218.31283957640477,24,,7,204.20577856662138,12,0.948113365859615,1.0,0.9180847440388621,0.018875209245702143,0.4166666666666667,0.9119633851718592,1.0,0.854443985925633,0.015152399486950347,0.4,0.9631759199271491,1.0,0.9394482148949392,0.009892088696624148,0.26666666666666666
an0,an0,7690.0,an0_12,20.175970702858347,57,58.07808017100045,0.0,0.02176594534066572,280.09350292986574,12,,5,143.02846501394498,54,295.8039891549808,11,245.49949083450255,11,0.9469837021417723,1.0,0.9121948569435336,0.01246066014513054,0.31666666666666665,0.9120065503859234,1.0,0.8567303099843252,0.011319192659796203,0.31666666666666665,0.9661253691797048,1.0,0.9435422819661747,0.005560688616765315,0.0
an0,an0,7750.0,an0_12,28.20481335138321,58,58.77452183250168,0.0,0.03001405401996433,261.90330868272423,13,,3,154.41979093976775,39,,9,260.36832884716733,13,0.9471676977349107,1.0,0.9145677579148133,0.01845436268617353,0.4666666666666667,0.686834539514564,0.75,0.8617548281852199,0.019995900147064156,0.5,0.9716339963885122,1.0,0.953579263762535,0.007185450203097488,0.2
an0,an0,7810.0,an0_13,23.385862272235208,58,59.68569512944122,0.033333333333333326,0.030922922986141795,286.2866436243723,13,131.11662369973027,10,199.33360659645427,27,,8,286.5164335019314,13,0.0,0.0,0.9215385560272067,0.03826459306215714,0.6833333333333333,0.0,0.0,0.8775831735950715,0.03122855840993282,0.6833333333333333,0.9681513415862814,1.0,0.9469189026438023,0.008353941906899882,0.1
an0,an0,7870.0,an0_13,14.448261958568521,60,60.17722191853365,0.0,0.021669627571839965,200.1738746143587,13,,3,168.44952995073925,51,207.8477413727414,11,198.22125684867066,13,0.9515776660452702,1.0,0.9197296954079034,0.011872700701414662,0.26666666666666666,0.9416221282978005,1.0,0.9027035471630008,0.009855028948683347,0.26666666666666666,0.9666371057712257,1.0,0.9443951762853762,0.006804084654959798,0.0
an0,an0,7930.0,an0_13,15.24935772365678,58,58.559466406166834,0.0,0.027166784749233053,,6,,3,141.55804298701548,52,,4,,6,0.0,0.0,0.9187572861229945,0.0325401537170399,0.6166666666666667,0.0,0.0,0.9047720481871626,0.037357464254666184,0.6333333333333333,0.9721147227349393,1.0,0.9535245378915654,0.006912165638302128,0.0
an0,an0,7990.0,an0_13,18.027388852083106,59,59.83962979218089,0.0,0.018311914069988076,217.40892864048652,13,,3,232.58243066399368,43,,9,200.92095652079394,14,0.47625523374829665,0.5,0.921023834050787,0.02547261415226291,0.7666666666666667,0.47282195434977137,0.5,0.9094065144992378,0.020799559998531385,0.55,0.966012597869996,1.0,0.9433543297833268,0.006692857048117278,0.0
an0,an0,8050.0,an0_13,18.082479208502132,59,59.65187167693144,0.0,0.028087210619751255,,8,,4,187.87217114562822,46,,9,308.0043289739069,10,0.47472514183509756,0.5,0.915820930770249,0.02650775514467903,0.7166666666666667,0.9547381748910572,1.0,0.9270428649000128,0.019515436835169805,0.45,0.9633558116763122,1.0,0.9407507888037835,0.008676810457937126,0.05
an0,an0,8110.0,an0_13,22.690201610863934,59,60.82595565181983,0.0,0.03885029799758028,266.5113054324252,12,,4,166.3797394055511,34,,9,268.1262140609655,13,0.9492913946132224,1.0,0.9159393535757088,0.01598691551198795,0.38333333333333336,0.9561357773194095,1.0,0.9268929621990157,0.010615861093303782,0.43333333333333335,0.9644403816495277,1.0,0.9410479715256254,0.007187387074442575,0.11666666666666667
an0,an0,8170.0,an0_13,22.04602050776518,59,59.19681757912226,0.0,0.03492878479796249,143.30232291502085,12,122.19418430914489,12,214.20898825370105,34,,7,162.265215003093,11,0.4745398685725737,0.5,0.9147616416022074,0.024526067137585223,0.5333333333333333,0.9559321757966274,1.0,0.9287916148424693,0.01705721173414222,0.43333333333333335,0.964209563245628,1.0,0.9408564775484858,0.009122050060859262,0.18333333333333332
an0,an0,8230.0,an0_13,11.990548700718838,59,59.67999586219424,0.0,0.03824738734845925,249.16241526299166,21,,4,169.71296424956756,51,234.90247357576695,19,246.9919027012829,21,0.9487587149366575,1.0,0.9147609298473138,0.015796330675932668,0.26666666666666666,0.9578347504203335,1.0,0.9298204285537153,0.012192274864418335,0.1,0.9657329273084687,1.0,0.9428882121807812,0.007128236358168376,0.0
an0,an0,8290.0,an0_13,13.526811189686159,58,59.47799140841358,0.0,0.030994010608270298,229.53332410567316,21,,4,190.7370316282997,51,181.74063018814536,20,180.70039175095158,20,0.9500030349863953,1.0,0.9186545657564947,0.009382026810565075,0.18333333333333332,0.9578922571322291,1.0,0.9298204285537153,0.0066389180572115555,0.08333333333333333,0.9713282986844252,1.0,0.9522138311407087,0.006542401381569687,0.0
an0,an0,8350.0,an0_13,14.083153558775205,59,60.09717713542176,0.0,0.03330983345216829,210.80391068957718,14,,3,237.91595975522534,41,300.3073918877053,13,255.28695339054946,15,0.4755077246115338,0.5,0.918359082038446,0.021637757578015632,0.6,0.9575592143127983,1.0,0.9295718543626437,0.015010919514456812,0.16666666666666666,0.9606964466188087,1.0,0.9344940776980144,0.009211148789291967,0.0
an0,an0,8410.0,an0_14,21.412910617620703,59,59.72585831032799,0.0,0.030691209035690767,219.62019995110307,13,,7,187.24861431577898,47,258.60758940583213,12,218.99391163530856,13,0.4759294706312959,0.5,0.9197649021043198,0.02372076190465091,0.7,0.9573106571188602,1.0,0.9288747126946811,0.016372145459880666,0.2833333333333333,0.9608979353335296,1.0,0.9348298922225494,0.008691531758917084,0.0
an0,an0,8470.0,an0_14,12.179233079492647,58,59.00096614083729,0.0,0.03885149475751371,132.13984069916233,26,,4,241.25113004376962,37,116.2439368451571,24,122.21906561580316,25,0.47545108947594394,0.5,0.919836511345834,0.02946322535458868,0.5833333333333334,0.4786876816780325,0.5,0.9283219540683754,0.02015381545337073,0.5166666666666667,0.956885774732149,1.0,0.9292000564150639,0.011963273187721068,0.3
an0,an0,8530.0,an0_14,20.395908730171485,60,59.604109504599336,0.0,0.024378239449817686,145.07393892049063,41,,2,171.29178932275047,44,145.07393892049063,41,149.46571513226704,41,0.964070421073621,1.0,0.9441989773210346,0.009528147035646348,0.3,0.9569931724410252,1.0,0.9283219540683754,0.013446845838576037,0.38333333333333336,0.9602743153819551,1.0,0.9338735393030103,0.012724683543482235,0.11666666666666667
an0,an0,8590.0,an0_14,16.74107770879097,60,60.52212436697868,0.0,0.03581441421371265,153.67386463643484,38,,6,160.19100850572443,38,155.77183779935606,37,152.51052245487674,38,0.9685276448384048,1.0,0.9495972054758275,0.009529672343736632,0.21666666666666667,0.9548658286261337,1.0,0.9247763810435561,0.01436166257740021,0.3333333333333333,0.9657585396597272,1.0,0.9432388016866835,0.01513561017434381,0.18333333333333332
an0,an0,8650.0,an0_14,19.50607514083942,60,60.26253372816449,0.0,0.032282761787460264,145.095724445044,29,,3,132.2550219484769,39,144.74419685482437,28,144.96304947911972,29,0.9645893903420377,1.0,0.9465164957637006,0.01364738039667419,0.43333333333333335,0.9560101087959608,1.0,0.9268285831847058,0.019788801148395006,0.48333333333333334,0.9702678520975389,1.0,0.9521177214682375,0.015510080829975906,0.25
an0,an0,8710.0,an0_14,19.14239737346394,58,59.428770656459996,0.033333333333333326,0.040313507873746275,202.78197448196593,33,,6,190.96729002469246,35,206.00757838931713,32,197.77797913887701,32,0.9625377489701828,1.0,0.9381015674287233,0.014312507441338121,0.38333333333333336,0.9559038041242138,1.0,0.926506340207023,0.01767172707179222,0.43333333333333335,0.9711337692487053,1.0,0.9524357965285573,0.013646084138797254,0.2833333333333333
an0,an0,8770.0,an0_14,17.662415578586053,58,59.728087879950984,0.0,0.018781361686240183,178.8476750908903,16,,0,164.4790887020753,34,105.08003916387649,12,176.84267961477323,16,0.0,0.0,0.9362695319131399,0.07363722120473806,0.7333333333333333,0.0,0.0,0.9219569891564097,0.08178616939854298,0.7333333333333333,0.48470338923206896,0.5,0.9461119694249343,0.020328256175117874,0.5333333333333333
an0,an0,8830.0,an0_14,14.437850966723719,59,59.07913354543507,0.0,0.02024850512005276,237.0903899936557,41,,1,108.84249665238316,53,240.3534384830494,39,235.30299615602007,41,0.9585154488939481,1.0,0.9308590814899136,0.008374334546232712,0.13333333333333333,0.9531741934938458,1.0,0.9219569891564097,0.010416504232899365,0.13333333333333333,0.9713437425896148,1.0,0.9582350426970947,0.011740951875425322,0.13333333333333333
an0,an0,8890.0,an0_14,16.773492107538072,58,59.68640761435807,0.0,0.024373926496268607,242.96629774064883,43,,2,108.19483368737129,59,242.96629774064883,43,252.38858928247924,43,0.9593663556948648,1.0,0.9322772594914412,0.006865852758108651,0.0,0.9531686993917861,1.0,0.9219478323196434,0.008728424969586271,0.06666666666666667,0.9787821761868895,1.0,0.9646369603114824,0.011704627198873429,0.0
an0,an0,8950.0,an0_14,19.90100526293718,58,58.35060349108276,0.0,0.02907847592519709,206.75467965343313,33,,2,134.29776123180534,41,195.44854133113336,32,213.35123622796283,33,0.960182743003906,1.0,0.9348362314661608,0.011796875296423388,0.35,0.9526910388583048,1.0,0.9214178417259479,0.015253461648303275,0.45,0.9753751204345458,1.0,0.9597545769246136,0.012808995665516125,0.2833333333333333
an0,an0,9010.0,an0_15,17.672380694730045,62,64.08229876023094,0.03125,0.03910898082706567,192.6427381195289,34,,2,134.26935345544697,41,188.69849656488196,32,196.8660712261003,33,0.9610942077118683,1.0,0.9351799883982808,0.014829466848227573,0.26666666666666666,0.9526910388583048,1.0,0.9218399090947946,0.017773003661584207,0.36666666666666664,0.9747592043807929,1.0,0.9592596480684705,0.013345663838948231,0.2833333333333333
an0,an0,9070.0,an0_15,16.9728907962454,65,66.92298168648914,0.02985074626865669,0.04508023626449952,158.08580631761635,12,,9,121.39959267237037,44,164.693726163142,11,160.3405466782838,12,0.9531504454347678,1.0,0.9225181189221677,0.016132490196683,0.35,0.9473830930555684,1.0,0.9196714259745811,0.017654052254064655,0.48333333333333334,0.96790866434329,1.0,0.9505738893607185,0.011279019606364174,0.2
an0,an0,9130.0,an0_15,52.01543394545884,66,72.75805158781212,0.08333333333333337,0.16426105265460234,,9,202.504310091091,17,168.69392876319674,25,,6,204.36894741292443,10,0.4756226738082688,0.5,0.918892884859183,0.026414918810744085,0.5666666666666667,0.0,0.0,0.8525259706383682,0.0368235609622989,0.6666666666666666,0.9626920155420009,1.0,0.9512359629424103,0.015875654081002482,0.43333333333333335
an0,an0,9190.0,an0_15,87.62725828363278,50,90.05574450575952,0.4897959183673469,0.3901797960238266,,3,,8,79.45642815159373,49,,0,,2,0.0,0.0,0.9208737127544424,0.04112387837271932,1.0,0.0,0.0,0.8468421035536633,0.04897075341041572,1.0,0.9295918050935283,1.0,0.8833670787119838,0.013930497831967564,0.03333333333333333
an0,an0,9250.0,an0_15,19.773094848217998,79,91.71128675533748,0.17708333333333337,0.26825271406255485,,2,,4,70.1788259247266,40,,2,,2,0.0,0.0,0.9208989964704242,0.041881823472510724,0.8666666666666667,0.0,0.0,0.8475980206152087,0.04879622869175348,0.8333333333333334,0.9692212208886716,1.0,0.9529581664374387,0.01330565158251762,0.25
an0,an0,9310.0,an0_15,13.725012500877762,80,80.74223646587913,0.0,0.0650483799891067,147.83820408834848,12,146.71422938545078,13,77.67138043588378,39,110.54679831662044,10,148.0171980179699,12,0.0,0.0,0.9266930093540732,0.03561326772229389,0.65,0.22832560325397797,0.25,0.8590980933497456,0.030348199998047883,0.6,0.9552728080554729,1.0,0.9344162982330904,0.013719483287798472,0.25
an0,an0,9370.0,an0_15,19.96465664770399,70,70.49621699672659,0.0,0.02875364824730169,148.4907920904463,28,104.66366941614542,24,92.52274367197997,56,148.7742889833455,26,149.80233890277128,28,0.9575428110715787,1.0,0.9314525055164167,0.015971062330829428,0.4666666666666667,0.9364233957796302,1.0,0.9350586881872712,0.016491953593836366,0.4666666666666667,0.9764466317340431,1.0,0.9623167881429271,0.01109177878238729,0.1
an0,an0,9430.0,an0_15,28.792401969777675,67,67.23329392713347,0.0,0.05202015033612048,128.58206226815759,18,103.8161420066544,25,132.68187928349096,45,115.8122428154187,17,133.10765214225486,18,0.9580401361316657,1.0,0.9396513236708376,0.012209567771743597,0.4166666666666667,0.9622734342857904,1.0,0.9498080393662488,0.012796657032458653,0.4166666666666667,0.9742108733233679,1.0,0.9592548093578893,0.011964241458856321,0.31666666666666665
an0,an0,9490.0,an0_15,21.502687347264768,65,66.76993750323955,0.0,0.029134448901796967,122.94452588591531,41,73.22988901374408,37,112.34485328975741,53,159.37382163968604,40,155.24960233247054,42,0.9617064278886167,1.0,0.9362385032603084,0.007226883513990313,0.26666666666666666,0.9730609449412344,1.0,0.9559168018628738,0.009993082721675841,0.2833333333333333,0.9724735803415518,1.0,0.9546416173520804,0.011965214698156122,0.26666666666666666
an0,an0,9550.0,an0_15,22.674821911661255,67,67.73958644985625,0.0,0.04302981592445342,48.65394792084517,52,54.56700661374338,52,103.757229464859,48,48.65394792084517,52,52.80374318282414,52,0.97525146030598,1.0,0.9658850615635262,0.006396163938507539,0.2,0.9810249774013478,1.0,0.9748729187070319,0.009507013731168116,0.21666666666666667,0.9745193210417833,1.0,0.9587737334529093,0.012069343858832127,0.23333333333333334
an0,an0,9610.0,an0_16,16.59558499190607,64,64.56125248827462,0.0,0.03388505233460407,200.63705709161857,25,114.31205309764337,33,152.82501107079648,33,192.79629186332915,23,201.1529268989144,25,0.9747432436371354,1.0,0.9617912175313188,0.008795160537998687,0.25,0.979374860435098,1.0,0.9682176684073228,0.012629672794089917,0.31666666666666665,0.9674151326217624,1.0,0.9494998526878669,0.01420317680528239,0.38333333333333336
an0,an0,9670.0,an0_16,20.395842046322933,63,63.78988462527394,0.0,0.04635897560868232,209.61681465086477,11,263.30062322745135,15,221.63946631929755,34,307.01567761611676,10,211.23446688454987,11,0.24183622205497268,0.25,0.9455748136998179,0.02980111103288637,0.6166666666666667,0.0,0.0,0.950599566582464,0.03210295825669577,0.6166666666666667,0.963520084526348,1.0,0.9424578677851428,0.016519154957427905,0.3
an0,an0,9730.0,an0_16,67.81010624499598,72,72.3426291601842,0.0,0.0713171012494245,,8,,9,172.71973358650223,40,,4,,8,0.0,0.0,0.9350158090957925,0.03835780847047994,0.9,0.0,0.0,0.9399734010592043,0.04259494337165798,0.9,0.9592388987442844,1.0,0.9336802982087042,0.01562836106254077,0.1
an0,an0,9790.0,an0_16,18.245757983424166,64,72.43883445918888,0.1466666666666666,0.12961808714617712,192.22560597836596,11,200.94054684255394,14,173.34245706656807,41,,7,192.11975432005946,11,0.4743484877065588,0.5,0.9186185053420632,0.025917523925399838,0.7333333333333333,0.47838338367383715,0.5,0.9285415180206206,0.029831604384944258,0.7666666666666667,0.9556905246995645,1.0,0.9345932149753091,0.013151994137509473,0.35
an0,an0,9850.0,an0_16,52.104437775086524,65,91.09251811613092,0.3298969072164949,0.3143053257125984,33.16001337177665,65,137.6197986642002,11,249.07403853895963,15,,3,34.3693177121688,65,0.0,0.0,0.9050692030807477,0.04334457504512418,0.9833333333333333,0.0,0.0,0.9240660686952166,0.06060783985448735,0.9833333333333333,0.4798158137866139,0.5,0.933039068175057,0.025540643452188514,0.6833333333333333
an0,an0,9910.0,an0_16,14.128739567586384,79,81.18860112030472,0.024691358024691357,0.06252959033554462,149.44247828337225,22,81.01069383038855,22,283.3621279438814,14,151.1572384710289,21,155.00424442405983,20,0.9497060525764861,1.0,0.9186525725407257,0.011424358249021216,0.48333333333333334,0.9488052912592173,1.0,0.9148856836715491,0.016064555666067827,0.48333333333333334,0.9367574519393365,1.0,0.895044245897833,0.014982633017694771,0.38333333333333336
an0,an0,9970.0,an0_16,25.351898509276438,67,67.80235613199243,0.0,0.045785169438376405,93.24225932275081,10,146.0714666606584,25,153.28721457526584,40,93.24225932275081,10,93.74907406950156,10,0.9505209129516595,1.0,0.9175348549194325,0.012867067055190192,0.26666666666666666,0.9524325146508408,1.0,0.9240549465758775,0.019095292575510632,0.4166666666666667,0.9424437251827102,1.0,0.9051660252396901,0.011864485698160319,0.23333333333333334
an0,an0,10030.0,an0_16,31.25717157799762,63,63.514848183664945,0.0,0.04373805247585958,144.19654374903257,10,208.96612069809157,17,228.62538968823247,27,,6,144.45299120013635,10,0.4748422015939567,0.5,0.9166568041841093,0.02306862424883014,0.6,0.47921852407342946,0.5,0.9311204885714927,0.027800788349470217,0.65,0.9478050732307534,1.0,0.9257941463506847,0.013743329625075684,0.2833333333333333
an0,an0,10090.0,an0_16,27.06772749541071,58,59.7360562355411,0.0,0.03642313055292392,,4,101.66696132871887,24,182.18198454682903,20,,4,,4,0.9475654681648475,1.0,0.913392190697281,0.016709051416289783,0.4666666666666667,0.4816505269855003,0.5,0.9383532327226031,0.027022639460449444,0.5333333333333333,0.9561674164977813,1.0,0.9270826553781178,0.019157807540363763,0.4166666666666667
an0,an0,10150.0,an0_16,23.60265574025537,64,64.8591502478726,0.0,0.04341344309516544,,7,,7,178.86360026567732,26,,7,,8,0.0,0.0,0.9145179247423482,0.07993620970440439,0.75,0.0,0.0,0.938937629687764,0.08002074758169975,0.8,0.9579623362363889,1.0,0.9330652048546123,0.017320091157612585,0.4666666666666667
an0,an0,10210.0,an0_17,28.191634615345038,64,64.26229297502651,0.0,0.04622015473258681,,4,249.58461584951505,11,178.4832836768848,16,,0,,4,0.0,0.0,0.9124219675990464,0.049377057406805036,0.9333333333333333,0.0,0.0,0.9364865192750056,0.06120804485009369,0.95,0.0,0.0,0.9432853816862854,0.03157063957595904,0.55
an0,an0,10270.0,an0_17,29.245598835141774,59,60.29835626679518,0.0,0.0302788658153021,,3,223.54916595839592,19,151.7445559851809,35,,5,,2,0.9445164846804559,1.0,0.9075274744674264,0.016734800618318037,0.4166666666666667,0.7191028928432213,0.75,0.9315118786039929,0.01984747750636204,0.5,0.9666496559092759,1.0,0.94451594976747,0.011348544403454522,0.15
an0,an0,10330.0,an0_17,25.806243567121232,60,62.01451036182097,0.032258064516129004,0.048056210402377474,77.37566777138781,12,219.99332764650927,17,149.70372457111066,28,,5,80.67893720848652,12,0.9416464550278342,1.0,0.904131860613618,0.018543073216886616,0.45,0.48049945036005115,0.5,0.9262247297275228,0.0224641246733081,0.5666666666666667,0.9668499989746466,1.0,0.9473787134017725,0.015244498243388062,0.45
an0,an0,10390.0,an0_17,18.07193799318035,62,62.10006908630845,0.0,0.035447401429958926,,7,237.0384377735874,15,128.3724744152733,35,,4,,7,0.0,0.0,0.9207435154795053,0.03321920708206199,0.7333333333333333,0.23745909754397215,0.25,0.9194572341532995,0.03214387701702973,0.7,0.9693496753620445,1.0,0.9494904399554709,0.012812153764347259,0.2833333333333333
an0,an0,10450.0,an0_17,14.516238779260481,58,60.355311720111814,0.0,0.03775897367235374,,8,189.57188610128875,11,183.35626632134927,46,,5,,8,0.7160710173485761,0.75,0.9256459137579894,0.020079722840968407,0.5,0.951599591152557,1.0,0.920360216662533,0.018329098428973848,0.4166666666666667,0.9702845703220968,1.0,0.9518428578474629,0.011203513265621943,0.1
an0,an0,10510.0,an0_17,18.55857192335026,60,60.86828610127765,0.0,0.04649748445219954,,7,241.72945862629808,20,165.53213976510048,48,,4,,7,0.4782652499408372,0.5,0.9281457761033192,0.02136234380303313,0.5166666666666667,0.7137488999715023,0.75,0.9199295738180102,0.022969583421855806,0.5,0.9685086205051472,1.0,0.9475143675085786,0.010282979569966972,0.08333333333333333
an0,an0,10570.0,an0_17,22.82223979768411,63,64.2694862405145,0.0,0.029101437527963146,,6,305.7174099812194,11,153.84501676872836,33,,5,,5,0.9570553246682227,1.0,0.9345873745274667,0.014162962574427484,0.35,0.9520406650682619,1.0,0.9212607061939169,0.01836512562975553,0.43333333333333335,0.966810193090183,1.0,0.9448446297481714,0.010202397005036837,0.2
an0,an0,10630.0,an0_17,21.51521244961768,61,62.305748847655835,0.0,0.03410495050001772,,1,174.64723275885618,24,109.80199390076363,16,,1,,1,0.9603236142164806,1.0,0.933872690360801,0.013220348297779481,0.35,0.9501991616991851,1.0,0.9198784677346941,0.01761636578094082,0.4,0.4826746754016102,0.5,0.9386995561760434,0.021115467363930784,0.5166666666666667
an0,an0,10690.0,an0_17,22.672896728765636,58,59.67411963270127,0.033333333333333326,0.03938642905740153,,6,170.44116651645393,25,206.23574115656513,23,,5,,6,0.9603236142164806,1.0,0.9343122972783422,0.010780349925965004,0.25,0.9560675793136881,1.0,0.9287809020218868,0.017248338184074966,0.35,0.9627109119364603,1.0,0.9417947481105347,0.010891793213035052,0.4666666666666667
an0,an0,10750.0,an0_17,23.376225396029838,57,58.29000443006283,0.0,0.034577453370469594,,2,209.9223256647563,24,144.2897354709502,29,,2,,2,0.9604223950145729,1.0,0.9340373250242882,0.009128636926281651,0.23333333333333334,0.9616205760331842,1.0,0.9387962244729635,0.0147141643401896,0.3333333333333333,0.9623925058222863,1.0,0.9404724500403974,0.008842659761305873,0.3
an0,an0,10810.0,an0_18,22.389703071406412,58,58.69029668432156,0.0,0.025480938325486025,,2,164.88901656596448,12,168.34158255499312,24,,1,,2,0.9616642294964621,1.0,0.9361070491607701,0.014561449462808504,0.4666666666666667,0.4815440778217923,0.5,0.9402681997115728,0.023784531769604343,0.5833333333333334,0.963892762283078,1.0,0.9401360961085696,0.009637395414816653,0.26666666666666666
an0,an0,10870.0,an0_18,14.799946413732682,60,60.72536447865421,0.0,0.03568044629475535,,3,240.3534384830494,17,173.4491567732503,33,,3,,3,0.960519873762026,1.0,0.9382380959890898,0.008303995009258994,0.4,0.9602627338596493,1.0,0.9355048002212419,0.01316825494419968,0.4666666666666667,0.9639869146846158,1.0,0.9399781911410263,0.006726693787796085,0.05
an0,an0,10930.0,an0_18,17.097399501565064,61,61.63568788509928,0.0,0.031326349866919574,,3,326.7608955850175,12,177.00137752387363,44,,2,,3,0.9611920043960133,1.0,0.9353200073266887,0.012098805694023468,0.31666666666666665,0.9564006050784354,1.0,0.9328323893267295,0.01830435612858288,0.48333333333333334,0.9656665286507289,1.0,0.9427775477512147,0.0065845178626531276,0.0
an0,an0,10990.0,an0_18,32.69308341656558,58,67.60597659367548,0.23684210526315785,0.20510888765092525,84.9711713114755,35,143.68900015034046,12,131.62346532458804,34,123.60879464901895,10,77.38138528017438,34,0.0,0.0,0.9354554467266081,0.03643228462907508,0.6166666666666667,0.0,0.0,0.9257569086670986,0.04965841544009736,0.75,0.9650464416774429,1.0,0.9419351529849699,0.007387496999391651,0.06666666666666667
an0,an0,11050.0,an0_18,33.07694573717066,67,92.76839442646691,0.3163265306122449,0.27097413886955535,83.10391455767763,47,112.96330072314574,15,227.27631252635396,14,,9,80.42940313647048,46,0.0,0.0,0.9510509930613952,0.04401171097501662,0.9666666666666667,0.0,0.0,0.9255909797029203,0.05981845560773738,1.0,0.9644106827538913,1.0,0.9406844712564855,0.007745099522379515,0.0
an0,an0,11110.0,an0_18,14.317631453701159,88,90.09759822333375,0.022222222222222254,0.12526223697447228,139.56001048931523,10,278.3688508479277,13,88.46384255971299,33,,4,,9,0.0,0.0,0.9310883387032716,0.03777255586297305,0.7,0.0,0.0,0.9204938275085552,0.056597186478357764,0.7833333333333333,0.9380092722169722,1.0,0.8966821203616203,0.006327827338856772,0.08333333333333333
an0,an0,11170.0,an0_18,15.126563414297232,75,75.51900435738496,0.0,0.04187505845756234,,5,,6,94.00372170888741,42,,2,,5,0.0,0.0,0.9267033042493044,0.032531591837779913,0.7166666666666667,0.0,0.0,0.9097200925487581,0.045438119784701754,0.8333333333333334,0.9608798903651647,1.0,0.9347998172752745,0.006057365540792588,0.1
an0,an0,11230.0,an0_18,20.835141917995983,66,67.10396081132059,0.0,0.015966502614914394,,2,,8,121.6854115015684,59,,2,,2,0.4785910665456352,0.5,0.9286368884854507,0.021491281741870157,0.5166666666666667,0.47209294187657364,0.5,0.9089803419597315,0.028914308985265848,0.6333333333333333,0.9707880209940416,1.0,0.9513133683234025,0.0055360490096927496,0.0
an0,an0,11290.0,an0_18,18.537331924208956,71,72.5397245666057,0.0,0.04243341658250907,,9,206.59507674505247,18,114.11935361222719,52,,9,,9,0.9432298988132484,1.0,0.9154543445000942,0.015574206289392286,0.31666666666666665,0.4749179908278007,0.5,0.9142463506433011,0.021752283429048398,0.5166666666666667,0.9719165650907697,1.0,0.9531942751512829,0.006604125227015069,0.0
an0,an0,11350.0,an0_18,55.86991691200994,72,76.05208553833347,0.027027027027026973,0.06859376065785003,,5,288.4518700525368,10,102.65835075222408,40,,3,,5,0.0,0.0,0.9050000353611857,0.043441583673182904,0.6,0.0,0.0,0.9088615071112168,0.05870242185689003,0.6,0.9720418020320762,1.0,0.9537719706574197,0.007330509065065421,0.15
an0,an0,11410.0,an0_19,23.29107261272826,64,64.22339465602275,0.0,0.01853336540685576,161.94064386501825,16,152.86512203807084,22,132.38329893849087,38,161.94064386501825,16,159.9166449539676,16,0.9306149681157209,1.0,0.884358280192868,0.00855381504269805,0.0,0.9432829142389204,1.0,0.905720720400881,0.015841803396177943,0.26666666666666666,0.9661171567079436,1.0,0.9435285945132394,0.007899534857281695,0.0
an0,an0,11470.0,an0_19,27.32770674804576,63,63.62483404524575,0.0,0.020582772611908034,184.15498971922221,20,120.20845744866499,21,230.83921496154525,21,118.58541225631423,16,188.13489001805397,20,0.9251775539982854,1.0,0.8767821359488768,0.011975331258519205,0.36666666666666664,0.9514655781834778,1.0,0.9206723328812585,0.01587004207187714,0.48333333333333334,0.9665471751165506,1.0,0.9455539714724428,0.013933581169905862,0.4
an0,an0,11530.0,an0_19,20.349107711555767,63,63.97215931627379,0.0,0.05973745275095733,,7,169.8108373635532,10,153.9718793746374,20,,5,,7,0.46995989581800557,0.5,0.8998663193933518,0.022823053340491912,0.5833333333333334,0.0,0.0,0.9270403228226206,0.03636255022563571,0.8,0.9638204917594762,1.0,0.9403709445505282,0.013192934857450832,0.36666666666666664
an0,an0,11590.0,an0_19,24.807672355546423,63,63.732831968336775,0.0,0.05515677799773153,184.65038359060142,17,190.99801933376975,27,231.31685407502556,19,164.29794613496136,16,187.41664813991312,17,0.9400353303980133,1.0,0.9014362857636503,0.012801785924562385,0.26666666666666666,0.48052536333744555,0.5,0.9343487041045586,0.020170126037465826,0.55,0.9585257307262217,1.0,0.9363509179061356,0.017359007847340943,0.43333333333333335
an0,an0,11650.0,an0_19,22.475879499987872,59,59.52617167353802,0.0,0.042502104365825716,233.21326663458706,21,76.74563556401758,25,188.6291413388705,25,233.21326663458706,21,236.94936167881946,21,0.9542119155789444,1.0,0.9236865259649072,0.006760287009903245,0.08333333333333333,0.9637788637504935,1.0,0.9404833021516718,0.01108140762634041,0.23333333333333334,0.9584997381304363,1.0,0.931319888625421,0.01210982157575048,0.2
an0,an0,11710.0,an0_19,28.008778741629435,59,60.55241972514143,0.0,0.03697090492967507,193.88949204976225,28,100.10139323606703,30,215.50560930803906,25,193.88949204976225,28,161.13778146475957,27,0.9544153533789843,1.0,0.9297080786286088,0.012830947111536987,0.36666666666666664,0.4898426370216521,0.5,0.96336211750988,0.02056372493205767,0.5166666666666667,0.9585968652630732,1.0,0.9317867632270076,0.0162189341808713,0.38333333333333336
an0,an0,11770.0,an0_19,27.424830865576773,61,61.921932955122394,0.0,0.050803955487891975,286.4322904828469,26,176.60397742902055,23,216.18392880005806,22,289.38344373255086,25,286.4960732715197,26,0.9554158156391168,1.0,0.9259191993726701,0.010736992190386027,0.23333333333333334,0.9728232015685383,1.0,0.9561076148940753,0.01684239262630217,0.4,0.9591105447387758,1.0,0.9322705608286153,0.015526001195066585,0.4166666666666667
an0,an0,11830.0,an0_19,28.471285795562707,59,59.94197616705324,0.0,0.022746490927716346,199.0271750446406,34,147.9320041130691,23,219.71571153762395,33,199.0271750446406,34,195.09127622886183,34,0.9546572652361069,1.0,0.9244287753935116,0.007269019827456924,0.1,0.9660260658470433,1.0,0.9442771634526544,0.011493175058263787,0.11666666666666667,0.9556433772423519,1.0,0.9266927424750329,0.009941760363867208,0.1
an0,an0,11890.0,an0_19,25.347085149527878,61,61.834569852939524,0.0,0.016782544192955034,189.314140385762,11,219.56229392010445,13,217.8272950498858,26,,9,187.16303053755033,11,0.47832139497164655,0.5,0.9254071502281415,0.02331943459885676,0.5166666666666667,0.4780073249421647,0.5,0.9287318107456379,0.026887031487951324,0.55,0.9573553253465872,1.0,0.931619311844816,0.008583211391953524,0.3
an0,an0,11950.0,an0_19,18.06853010393835,60,61.1795727524914,0.0,0.03545335612321188,184.43678343360182,10,,8,138.69112982518925,41,,8,179.22673411693418,10,0.9575913338422988,1.0,0.9303782434477449,0.016952388463406833,0.4,0.9536096111187874,1.0,0.923526149738261,0.01834591371054278,0.4666666666666667,0.9621870083916044,1.0,0.9388650812757795,0.007284179587332862,0.1
an0,an0,12010.0,an0_20,19.80726688846447,61,61.98084585259792,0.0,0.019694252198839465,157.79095061498978,29,167.6201566849385,28,162.13183545115797,23,142.66351006254325,27,160.3901493234544,29,0.9612392923242222,1.0,0.937236470498197,0.00917098729655467,0.3333333333333333,0.954786924136096,1.0,0.9261845370925347,0.016470290232846258,0.4166666666666667,0.9627920832854358,1.0,0.9386310375961776,0.012439640504512678,0.3
an0,an0,12070.0,an0_20,23.93051409325319,65,65.03120413941971,0.0,0.016196382722142952,157.07154942009154,24,104.94500874796815,28,129.6056126102406,34,140.98950549779002,23,161.056295855774,24,0.9643029714132115,1.0,0.9421396276718542,0.006032110131844124,0.31666666666666665,0.955979013850521,1.0,0.9311307935795532,0.010728836346248063,0.31666666666666665,0.9645305922921044,1.0,0.941626528698806,0.007672882675081363,0.18333333333333332
an0,an0,12130.0,an0_20,33.13077996083511,61,76.78014772489794,0.19736842105263153,0.1629278350504673,174.22634045497637,16,,7,191.45435048325623,30,,1,177.46226963176466,15,0.0,0.0,0.942499878466854,0.06134621351889867,0.95,0.0,0.0,0.9446896084082868,0.05156013623100007,0.9333333333333333,0.9592479737299615,1.0,0.9320799562166024,0.008356169743685476,0.08333333333333333
an0,an0,12190.0,an0_20,12.93138063297954,73,74.69263978722789,0.026666666666666616,0.08213843307908045,,7,,8,,6,,1,,7,0.0,0.0,0.9351238334607098,0.11369367590177908,1.0,0.0,0.0,0.9257926855359372,0.06653806999076319,0.9666666666666667,0.47791628490506377,0.5,0.9250624945927971,0.021731209907310468,0.55
an0,an0,12250.0,an0_20,9.910575573283412,82,84.06546177505754,0.0,0.07772096308083315,,4,257.8256520214344,10,104.42675862376781,34,,4,,4,0.0,0.0,0.9237946849541673,0.048695108483190204,0.7666666666666667,0.0,0.0,0.9134409298187178,0.03170409468733597,0.9333333333333333,0.9551427643738462,1.0,0.9252379406230768,0.010662316373347143,0.0
an0,an0,12310.0,an0_20,22.897378059699985,67,68.1778669645209,0.0,0.018333462062312747,,8,,8,139.62941225922688,36,,2,,8,0.0,0.0,0.9179441364670924,0.03081087883068324,0.6833333333333333,0.0,0.0,0.9141283052007502,0.034725049655774415,0.8166666666666667,0.9586114896714619,1.0,0.9310768391117096,0.011281225305145673,0.21666666666666667
an0,an0,12370.0,an0_20,18.44936416241187,64,64.85571495049969,0.0,0.022248638549913064,190.3269955481224,11,163.57815410378,11,132.53455904950948,49,,8,214.05182040380274,12,0.47526828370489155,0.5,0.9177145671107736,0.02202774253191463,0.55,0.948776878504335,1.0,0.9146281308405583,0.01301073244295001,0.31666666666666665,0.9654293781474838,1.0,0.942382296912473,0.00672740143015698,0.0
an0,an0,12430.0,an0_20,21.32999626730896,62,63.18250265898617,0.0,0.014417598798191782,,7,232.2531264739927,10,180.36556844711242,40,,2,,7,0.0,0.0,0.917748814051737,0.03459014214720869,0.8166666666666667,0.9468949063323352,1.0,0.9121173856160821,0.015919041473664058,0.45,0.9693214364998205,1.0,0.9488690608330342,0.009137530806538008,0.15
an0,an0,12490.0,an0_20,22.443036480824112,61,62.134828435316884,0.0,0.021890684106214132,153.18167885263273,10,,8,144.0356741784705,44,,5,167.03293088490065,10,0.4755383390801166,0.5,0.918728387249295,0.028661822195021773,0.7833333333333333,0.946740582929454,1.0,0.9119059775831363,0.013219973323977379,0.13333333333333333,0.96626189978041,1.0,0.94376983296735,0.008462650908003948,0.0
an0,an0,12550.0,an0_20,30.62664110928948,60,60.40337372969615,0.0,0.023987790482808854,202.30776534686663,15,161.80238879829102,16,192.57370281982037,38,234.26212559776567,16,204.69489490458722,15,0.47823221908938063,0.5,0.9316372313828221,0.024641846880110282,0.55,0.9470072759282254,1.0,0.9121653336452349,0.016681832542387885,0.36666666666666664,0.9656819509391675,1.0,0.943380251950373,0.008674517192537534,0.21666666666666667
an0,an0,12610.0,an0_21,20.452009978345693,62,62.93282707367633,0.0,0.02265339711718171,198.0813354274237,14,253.49680374160843,14,134.51274020426703,48,206.15725503140396,13,198.8428061018591,14,0.9470292407835068,1.0,0.9151449358553785,0.012999884337563354,0.4166666666666667,0.956118527967106,1.0,0.9268845924488274,0.011512124758626363,0.2833333333333333,0.964884037298064,1.0,0.9414733954967733,0.006431729264953442,0.0
an0,an0,12670.0,an0_21,27.437971857295416,62,62.903334872728806,0.0,0.031205045514688553,211.2599920827597,14,177.37988343348013,23,120.76800533619264,50,168.8131195084725,12,208.73243822949698,14,0.46713425863417235,0.5,0.8899050667784458,0.02323626207812125,0.6833333333333333,0.9561873004391188,1.0,0.927391752208736,0.014074978686855446,0.21666666666666667,0.9732704445461434,1.0,0.9554507409102391,0.006608881143041455,0.1
an0,an0,12730.0,an0_21,20.696405275833026,62,63.282261032946465,0.0,0.03029895361100867,157.54670273181432,10,,7,177.76752018475955,46,,6,155.95583420386114,10,0.4640292420988761,0.5,0.8802733982274257,0.0268261481864024,0.7,0.9455624081528048,1.0,0.9117560714345946,0.015474063944054945,0.2833333333333333,0.9702458274815404,1.0,0.9504097124692341,0.00734057006647329,0.0
an0,an0,12790.0,an0_21,24.534975658219743,63,64.0392774234882,0.0,0.052203455459956694,,8,,9,142.12334929715516,35,,3,,8,0.0,0.0,0.8898844071578315,0.04315664962895019,0.9333333333333333,0.4691387611817556,0.5,0.8914581133841741,0.02293201692190998,0.5833333333333334,0.9674440805742782,1.0,0.9481163663229902,0.010784453183505696,0.38333333333333336
an0,an0,12850.0,an0_21,22.404311704005426,62,62.18074075918037,0.0,0.037351748985779906,188.6652946222128,12,112.10572481783353,12,170.7978285912561,43,,8,187.15574457459948,12,0.47187723724841213,0.5,0.9054760051148503,0.02306524956850374,0.5166666666666667,0.4655299815539321,0.5,0.872884734268272,0.021127256458608894,0.5166666666666667,0.9649047606724926,1.0,0.9415829644788858,0.0090112035114116,0.11666666666666667
an0,an0,12910.0,an0_21,15.665331764489306,62,63.6528796296913,0.0,0.045124861498728096,,7,102.39376693404948,10,119.71001177263601,44,,5,,7,0.9360864377804461,1.0,0.9014351210103171,0.019090180418034716,0.45,0.9206985423776431,1.0,0.8703190617605767,0.01897139119133074,0.48333333333333334,0.9691195931460481,1.0,0.9485326552434137,0.007705638466417187,0.0
an0,an0,12970.0,an0_21,13.598868528545891,72,73.79697100336155,0.027027027027026973,0.09958603725874728,243.17674310142544,16,,6,115.23673953385203,43,,9,245.4248017893329,16,0.0,0.0,0.8848166662608137,0.03153319929043023,0.7833333333333333,0.4628912384641447,0.5,0.8807612908276279,0.02375629168820285,0.6666666666666666,0.9645180314391941,1.0,0.9408832213340372,0.006860260694345356,0.08333333333333333
an0,an0,13030.0,an0_21,9.94645962793087,75,84.15383320707386,0.12790697674418605,0.14214921359560867,196.34343301955337,14,,8,116.7125793214896,51,,6,195.13309067639727,14,0.0,0.0,0.8818259018842345,0.03222185039831558,0.9,0.47127738413494485,0.5,0.8896036028634818,0.020935628891168262,0.5666666666666667,0.9619603706840933,1.0,0.9366006178068221,0.006643540979170315,0.0
an0,an0,13090.0,an0_21,6.233261853270004,87,89.54568994228319,0.04395604395604391,0.11463823916821074,227.7010299626522,20,92.87788802149484,16,101.90610582005914,56,183.20655262703013,14,238.89328161335973,21,0.467970666499725,0.5,0.9103285003646387,0.028935296371262367,0.9166666666666666,0.9480009423375775,1.0,0.920206433793153,0.017359390682777816,0.3333333333333333,0.9712224359782492,1.0,0.952037393297082,0.007401590962503486,0.0
an0,an0,13150.0,an0_21,18.50272755260788,82,84.56492754204457,0.0,0.021269348840280505,217.75567667048824,10,161.91551536089224,16,70.5832460921588,57,,9,,9,0.9547551307883848,1.0,0.9319944735939334,0.018329008909666808,0.4166666666666667,0.9522369646689879,1.0,0.9203949411149799,0.011513085555514963,0.2,0.9699655157949412,1.0,0.9500804002528006,0.006884026301525165,0.08333333333333333
an0,an0,13210.0,an0_22,17.37949636763765,72,74.64093047386427,0.027027027027026973,0.03738664594856639,,7,107.74100324062736,17,79.76575678109694,46,,5,,9,0.47972021595776465,0.5,0.9308951505973142,0.02797628300768469,0.6333333333333333,0.9472253977653481,1.0,0.9127039435997109,0.017979699131204584,0.36666666666666664,0.974594481927195,1.0,0.9576574698786583,0.00870378430829357,0.03333333333333333
an0,an0,13270.0,an0_22,18.038269431755012,70,71.3331209191094,0.0,0.04375633391625265,200.98532511469173,13,195.32670402896318,23,89.83161796969691,57,168.58836780874495,13,200.35385363567795,13,0.9468454735691819,1.0,0.9142946361253103,0.019083253387670987,0.45,0.9355516118448404,1.0,0.9067224627273041,0.0169655157014093,0.45,0.9757550044159649,1.0,0.9595916740266082,0.008566030283423605,0.0
an0,an0,13330.0,an0_22,17.814228574701467,72,71.76599978110892,0.0,0.04507153700790337,235.36250298741302,11,118.76308241334165,12,107.656961255732,56,,6,233.00214591286493,11,0.0,0.0,0.9096479890159208,0.04259265926176756,0.7666666666666667,0.0,0.0,0.9042260869150501,0.03980800780215134,0.75,0.9749655109761699,1.0,0.9586930380788095,0.0093332614394196,0.06666666666666667
an0,an0,13390.0,an0_22,16.109758453237912,69,70.49824635625275,0.0,0.020102908935114173,120.98622479469937,35,79.58248190523345,48,90.00400863950759,55,122.80566861638832,34,119.22544142234467,35,0.9381832921944925,1.0,0.9023318330106828,0.007906556889314128,0.15,0.9614581457813147,1.0,0.9417066126128826,0.007191912299182614,0.16666666666666666,0.9804248424247862,1.0,0.9677810186699276,0.009185153440533129,0.13333333333333333
an0,an0,13450.0,an0_22,19.77647475324078,67,67.73079267601909,0.0,0.04596745015001057,210.90411060525184,14,195.73272101752195,14,136.39033944939777,42,211.9958019680657,10,210.42082377208553,14,0.47797249904980155,0.5,0.9270289074381476,0.02643998535278127,0.6833333333333333,0.48265189391129876,0.5,0.9428407965612075,0.024827815322698357,0.6833333333333333,0.9742723604588475,1.0,0.9604205538934305,0.01020664582226757,0.21666666666666667
an0,an0,13510.0,an0_22,24.9155194165571,67,68.52968420376543,0.02898550724637683,0.042843963404413814,,7,196.58070407414283,15,137.5576938619756,51,,5,,6,0.954217016988851,1.0,0.9236950283147517,0.015751029456162302,0.4,0.9601931422873833,1.0,0.9357969227534741,0.018667588274120565,0.45,0.964054980606678,1.0,0.9407249990962849,0.007551754414098102,0.1
an0,an0,13570.0,an0_22,21.635310090284918,67,69.21173600330683,0.0,0.01980117486344427,172.46584051873384,13,224.31385299195682,19,110.5643245629956,57,172.46584051873384,13,172.79564037710364,13,0.4735668000744098,0.5,0.910344812532574,0.02860711422738555,0.5666666666666667,0.4787886391386911,0.5,0.9291114427582906,0.02692601926569177,0.5666666666666667,0.9725209758277419,1.0,0.9542016263795698,0.008081696520154714,0.0
an0,an0,13630.0,an0_22,16.255971545147304,66,67.26280193293921,0.0,0.053939240359393625,143.26940722594966,11,113.97849910053887,14,91.40291126381041,51,,9,143.56183336806478,11,0.9468419695820837,1.0,0.9125409741003769,0.015412873346559258,0.38333333333333336,0.955173745545005,1.0,0.9259118700400502,0.017107888283749338,0.3333333333333333,0.9764733130460552,1.0,0.9607888550767589,0.008198810843217597,0.08333333333333333
an0,an0,13690.0,an0_22,15.633295130469698,67,71.51515584943375,0.0821917808219178,0.08484061439775618,,8,265.4526095005001,15,118.57540390228607,37,,4,,8,0.0,0.0,0.8961227358597187,0.03753789630582227,0.8833333333333333,0.47587327476886376,0.5,0.9238325477805336,0.02876665622614029,0.7333333333333333,0.9739378277791555,1.0,0.9565630462985925,0.008684583442643945,0.0
an0,an0,13750.0,an0_22,61.69638490535464,73,85.58566268974405,0.16091954022988508,0.19462916630830343,,8,242.1390305096513,14,97.33612302311231,45,,2,,8,0.0,0.0,0.8891105742782619,0.030842083959159848,0.9166666666666666,0.4752939959504865,0.5,0.9172274156182767,0.02255753650428391,0.6333333333333333,0.9601435396259557,1.0,0.9335725660432594,0.006623003232965609,0.0
an0,an0,13810.0,an0_23,32.075692937924366,90,93.04648136982706,0.021739130434782594,0.07816821881385697,131.47302479976642,11,216.12543829481294,21,83.76238136978972,43,,4,124.72191289246472,10,0.22718176161871598,0.25,0.8663194371875133,0.030046739697517144,0.9,0.4753425333447685,0.5,0.9174105060519995,0.020998775840757017,0.55,0.9681960111315036,1.0,0.9469933518858393,0.008974761275333901,0.0
an0,an0,13870.0,an0_23,22.087202805508756,82,93.85991876418981,0.12765957446808507,0.06674060810283731,155.70652009246612,10,381.5615189040076,10,114.44874154523447,34,,2,125.81732790041282,11,0.0,0.0,0.8414271435543889,0.05426104072717687,0.9833333333333333,0.4739921347019085,0.5,0.9136285995313224,0.02706248071994228,0.8166666666666667,0.971488976514204,1.0,0.954205987394667,0.013120274098703182,0.13333333333333333
an0,an0,13930.0,an0_23,15.261626483328401,87,90.87893562598644,0.011363636363636354,0.0801753519209605,,5,,8,80.88861940965491,16,,1,,4,0.0,0.0,0.8390904838508344,0.04772883242487555,0.95,0.0,0.0,0.9131056679105386,0.030241001186848013,0.8166666666666667,0.9670133950821803,1.0,0.9453062608712024,0.014466445564004973,0.08333333333333333
an0,an0,13990.0,an0_23,12.548073663092948,80,80.5163243492979,0.024390243902439046,0.13573950901730455,105.77573956289847,17,132.32139593775705,16,122.80500416804372,35,,7,148.9176637885355,18,0.22847826916536892,0.25,0.8657273806156403,0.028535306042723127,0.5666666666666667,0.9412274840414547,1.0,0.9020458067357578,0.01616623429076734,0.35,0.9589389434216672,1.0,0.9315649057027786,0.007612550963579179,0.08333333333333333
an0,an0,14050.0,an0_23,9.563336196174939,108,118.73711207606968,0.0357142857142857,0.20958097646707619,166.62967155696435,23,267.53988923064435,12,97.62499499839936,21,,1,166.3921982436786,23,0.0,0.0,0.9090216355727292,0.05285128954098614,1.0,0.0,0.0,0.9015448029766407,0.030084750319153454,0.85,0.9605657018318188,1.0,0.934276169719698,0.010912185636280908,0.0
an0,an0,14110.0,an0_23,5.534475296290946,109,114.17110823996619,0.0,0.021680034754645947,,6,225.85197493786353,16,91.42707460177262,43,,7,,6,0.2342817618905799,0.25,0.906210954916455,0.030119398750376367,0.8833333333333333,0.9406403593795701,1.0,0.9022359069346819,0.018500618377894573,0.43333333333333335,0.9445840410724362,1.0,0.9076400684540603,0.007918110463793895,0.0
an0,an0,14170.0,an0_23,41.70087629040945,77,91.26474686220571,0.15384615384615385,0.19855230530192663,81.83881197716236,16,184.96000940237053,13,106.0735419606913,27,,1,84.30104783848577,16,0.0,0.0,0.8984006488475641,0.045298527592851176,0.95,0.4715561953343673,0.5,0.9096188194670094,0.027408503700364125,0.8,0.9569387777300065,1.0,0.9304555654852206,0.009285212341759512,0.2
an0,an0,14230.0,an0_23,38.78400949344918,77,87.49340153923518,0.1444444444444445,0.1622678927906526,111.43277549653473,10,253.74260217732893,10,111.09754691511219,37,,4,121.10601416389966,10,0.0,0.0,0.9086295567310624,0.05154542759347552,1.0,0.0,0.0,0.9164112172206359,0.03218779524851199,0.8666666666666667,0.9686831670155175,1.0,0.9478052783591959,0.010021747113941434,0.08333333333333333
an0,an0,14290.0,an0_23,14.69237536795407,76,76.56493951043834,0.0,0.07094638238896019,,9,169.6710013464784,13,86.91832952228457,37,,4,,9,0.0,0.0,0.9086295567310624,0.042045151846426994,0.7833333333333333,0.47463995567700484,0.5,0.915493038274375,0.025750424312814414,0.65,0.968220719998295,1.0,0.9470345333304916,0.012384186490758486,0.0
an0,an0,14350.0,an0_23,19.933147791718778,69,69.32657322212465,0.0,0.03670884062652711,153.8002402107646,10,118.6883063427059,16,123.83688960408573,32,,8,158.49991237291655,10,0.0,0.0,0.9056174305901827,0.03510855478889793,0.6833333333333333,0.706215879439524,0.75,0.9027767187354044,0.019931191476802418,0.5,0.9697920891148502,1.0,0.9496534818580835,0.010702647335456707,0.0
an0,an0,14410.0,an0_24,13.981845287901953,68,68.62676134869348,0.0,0.02766388545285271,174.7044565413735,16,165.672899913127,11,156.71096775520445,34,,8,178.06365902863692,16,0.0,0.0,0.9006792990320284,0.032656360965313894,0.9,0.9454195274667204,1.0,0.9094485159668977,0.017696794626659823,0.45,0.9696463847053628,1.0,0.9494106411756047,0.010645376196618688,0.06666666666666667
an0,an0,14470.0,an0_24,15.246595243388997,67,67.63100971978305,0.0,0.046273386726369485,126.85064701343573,12,190.47270602387317,23,119.2214246455401,42,126.85064701343573,12,120.7551993986933,12,0.4733702946601804,0.5,0.9105505970792677,0.02257221901817516,0.6166666666666667,0.9440577771728891,1.0,0.9142522466838438,0.01410986029317874,0.31666666666666665,0.9684252152167022,1.0,0.9473753586945036,0.009335151339292629,0.0
an0,an0,14530.0,an0_24,14.426556386973743,69,70.21543265007314,0.0,0.06609953393233212,,9,131.72810983945303,11,132.54883260864517,42,,5,,7,0.0,0.0,0.9169969449314443,0.03569277471530336,0.75,0.4804678775123912,0.5,0.9303741352629207,0.022382791285322702,0.5666666666666667,0.9672273462819458,1.0,0.9456915317652324,0.009306356631221913,0.06666666666666667
an0,an0,14590.0,an0_24,15.519208940104738,69,70.66205636006636,0.0,0.057190739338525164,,8,,8,153.94292868777296,41,,7,,9,0.0,0.0,0.9170424840592345,0.030880233881387588,0.8333333333333334,0.47788908363997296,0.5,0.9302348564793435,0.026833743825568655,0.7333333333333333,0.9664606204451381,1.0,0.9441010340752302,0.008068910534636526,0.0
an0,an0,14650.0,an0_24,14.09647028678518,72,71.75351233441161,0.0,0.03993414610290879,,9,122.61726423951619,13,102.54395115788407,40,,6,,8,0.47163153191273294,0.5,0.9054384397091098,0.026438930178993427,0.7166666666666667,0.9520947081480241,1.0,0.9214443291026676,0.018220383661957662,0.43333333333333335,0.9689116830488491,1.0,0.9481861384147486,0.007738565761918821,0.0
an0,an0,14710.0,an0_24,15.93317459979504,77,78.13446159501288,0.0,0.050498800432678986,201.0561712168393,11,,7,134.1367042840919,25,,2,229.60440287194368,12,0.0,0.0,0.9017578103373891,0.03616481001115017,0.8833333333333333,0.47619595127791925,0.5,0.9206531709263974,0.02211565947556845,0.6166666666666667,0.9704344820792766,1.0,0.9507241367987943,0.010183875814537858,0.0
an0,an0,14770.0,an0_24,17.707355653513886,74,75.01791052612914,0.0,0.04705994333296008,240.3592097588713,12,221.21012470235925,16,148.1050173148977,27,,5,241.14311103574988,13,0.0,0.0,0.8996465209662413,0.041053842829110745,0.8333333333333334,0.4747145490304172,0.5,0.9125131061778933,0.02376916210814078,0.6833333333333333,0.9674048369308796,1.0,0.9456747282181327,0.008997643324463865,0.0
an0,an0,14830.0,an0_24,12.70905870860058,75,74.6435769202824,0.0,0.034658824785258946,249.55200745953405,10,250.09985576787852,12,115.79028164279015,28,,4,252.30052626888346,10,0.0,0.0,0.9068128940094289,0.04072313905211422,0.9833333333333333,0.4736564913154394,0.5,0.911530050744733,0.025195637333452058,0.5333333333333333,0.965707867159856,1.0,0.9428464452664267,0.009135096175630877,0.0
an0,an0,14890.0,an0_24,14.472376391653233,73,75.2083270659426,0.026666666666666616,0.08288957338413781,292.51768160314816,14,,8,132.80553680498645,34,,3,294.5661738374431,14,0.0,0.0,0.9173401829917172,0.04094339204041648,0.9333333333333333,0.4735443384442041,0.5,0.9092729511067956,0.02351972141878912,0.7,0.9696686270390497,1.0,0.9494477117317494,0.009183976720445738,0.06666666666666667
an0,an0,14950.0,an0_24,14.866357854720768,92,98.2252337350296,0.03157894736842104,0.12989643118165656,221.25610573025247,16,215.98418905529869,11,123.81809851506509,34,,4,223.36815648908717,16,0.0,0.0,0.9240858728513744,0.032327466121014885,0.8833333333333333,0.9367633976340823,1.0,0.9045764467004493,0.018134014396483957,0.43333333333333335,0.9614054730732924,1.0,0.9356757884554872,0.009306010935127673,0.0
an0,an0,15010.0,an0_25,6.24142967712967,90,92.57302082736774,0.0,0.0330221352113309,245.98641203092126,14,,8,74.90353371491074,53,202.64639857424962,12,248.9825449550785,14,0.7167921400329658,0.75,0.9279392798485409,0.019751408199287543,0.5,0.930674590562339,1.0,0.8844576509372317,0.010491843413805237,0.08333333333333333,0.9641286450088173,1.0,0.940214408348029,0.007247678140876524,0.0
an0,an0,15070.0,an0_25,8.422761787588865,78,78.75131908464282,0.0,0.032221285142825525,,9,,8,113.73623813888683,53,,4,,9,0.47845639289286346,0.5,0.9274200294903602,0.026635170960041706,0.6166666666666667,0.929071977893876,1.0,0.8845595607881009,0.014747233597698877,0.38333333333333336,0.9720396551421309,1.0,0.9539743111586367,0.00885684694542586,0.05
an0,an0,15130.0,an0_25,12.408840757689262,80,82.88683805352463,0.0,0.0827998442940117,239.95488523058398,12,196.87848769232158,17,146.11333921637498,38,,1,242.3933692462429,12,0.0,0.0,0.9275940001341989,0.042834423787103004,0.8833333333333333,0.46904672901644573,0.5,0.8961313163399731,0.024587751366275425,0.7,0.9650460996750149,1.0,0.9421058312226183,0.010159587018340282,0.1
an0,an0,15190.0,an0_25,14.408997205751374,72,73.1047591198085,0.0,0.03200813573507894,167.69094436248056,19,153.47957521830446,18,88.97214048748128,57,,3,165.22711641858305,19,0.943956747698837,1.0,0.9184355362844173,0.014542486827525462,0.4,0.9340193320897066,1.0,0.8939320630260886,0.012558793400582965,0.38333333333333336,0.9661168060519614,1.0,0.9435280100866023,0.008147412421076543,0.0
an0,an0,15250.0,an0_25,18.714445031239293,66,67.02528920014872,0.0,0.03094716577272231,129.29843062439627,12,257.89534653736,11,148.27510160704307,39,,7,112.29425630903836,11,0.46879850133815343,0.5,0.8901073571651499,0.02359424567586648,0.6,0.9316434049263684,1.0,0.892388779634281,0.018235272718816083,0.43333333333333335,0.9718808418443834,1.0,0.9531347364073057,0.00830199667715377,0.0
an0,an0,15310.0,an0_25,13.950834675020525,70,71.77411251318576,0.0,0.03346761776107088,79.54439765261075,13,,7,263.16260618041207,13,,0,80.77747210701756,13,0.0,0.0,0.869121028853634,0.056515171479354934,1.0,0.47128469394233247,0.5,0.9025533560012124,0.027192588051770997,0.6166666666666667,0.4853180201590077,0.5,0.9510600671966924,0.02465806503134211,0.7166666666666667
an0,an0,15370.0,an0_25,18.351562785468232,69,69.80737817452703,0.0,0.03468273240201593,95.59616878199384,12,119.14483787849184,20,201.54634948215593,16,,4,93.56572799131878,12,0.0,0.0,0.8671695400363598,0.07277712654951476,1.0,0.939611856878051,1.0,0.911314374946024,0.01731075830752324,0.4166666666666667,0.48146927961408237,0.5,0.9340891058063936,0.027248391391399007,0.6333333333333333
an0,an0,15430.0,an0_25,14.465653453587548,70,71.23369638777535,0.0,0.034594661334351705,,3,,9,90.361206108841,10,,0,,3,0.0,0.0,0.8833305202377757,0.057790252911765864,1.0,0.9343856427669722,1.0,0.8906427379449537,0.011080171982996927,0.3,0.0,0.0,0.9312000148902352,0.03649644389478507,0.8666666666666667
an0,an0,15490.0,an0_25,17.333192997508917,70,71.33833692504759,0.0,0.045283708826279453,,3,,5,234.54066115058717,12,,2,,3,0.0,0.0,0.8863288834359331,0.07691756970488453,1.0,0.9322671999576886,1.0,0.8881127366732106,0.017055440021666528,0.4166666666666667,0.0,0.0,0.9257446200200364,0.03277743266472957,0.7166666666666667
an0,an0,15550.0,an0_25,17.98221675167996,69,70.40766035345786,0.0,0.027605308786543985,,4,,8,185.4817594075403,13,,6,,8,0.0,0.0,0.89678160842973,0.047848545971195006,0.9,0.9323242128893128,1.0,0.8874515224534609,0.013828078952317115,0.13333333333333333,0.9548545151621216,1.0,0.925409220913759,0.017809723777935747,0.3
an0,an0,15610.0,an0_26,16.25305506731673,70,70.63647585201328,0.0,0.04055243716482678,,9,,7,199.4579599394397,17,,3,133.47908700117284,13,0.0,0.0,0.8971620202149689,0.06011856641441694,1.0,0.6995319983194364,0.75,0.8870835219628657,0.018942287363783526,0.5,0.4766308639219399,0.5,0.9205358523540517,0.02411804929484286,0.5333333333333333
an0,an0,15670.0,an0_26,43.34596338073041,68,70.02498724966927,0.02857142857142858,0.03940302517230481,,9,133.30942575373908,13,162.68574676066146,28,,9,,8,0.0,0.0,0.9144370838943875,0.03248509227829615,0.7833333333333333,0.937422246096502,1.0,0.897471992017309,0.01507094547258159,0.2,0.9546479286532745,1.0,0.9245252253260682,0.01181618468854203,0.03333333333333333
an0,an0,15730.0,an0_26,11.973966766080704,69,69.69895858145503,0.0,0.029290865539461936,,7,,6,138.00966578605568,34,,8,,8,0.47696495335180455,0.5,0.9270435177004208,0.029707049809954207,0.85,0.9372552660391426,1.0,0.8956767088022699,0.016501520713843143,0.3333333333333333,0.9558163064285378,1.0,0.926564733078724,0.010660074657898254,0.21666666666666667
an0,an0,15790.0,an0_26,11.315274994968169,73,74.02445027579675,0.026666666666666616,0.09096328768699564,144.40802742720595,13,142.45767600633178,17,206.72392677443426,19,217.91133876533365,11,156.87284949630674,12,0.0,0.0,0.9097321745113902,0.051279544224260135,0.5666666666666667,0.7060211357979822,0.75,0.9035003325964286,0.0203488107218876,0.5,0.957938988498316,1.0,0.9314419967672797,0.01590218639473072,0.38333333333333336
an0,an0,15850.0,an0_26,8.050913672775867,87,87.25800446747387,0.0,0.1443642007411502,148.02574469919077,12,190.05064885957228,10,153.8277965581111,37,,5,159.79153085609178,13,0.0,0.0,0.9095209683843815,0.03714475944450704,1.0,0.9536506992793685,1.0,0.9227511654656142,0.014127222209890199,0.16666666666666666,0.9544301159464124,1.0,0.9244504095802968,0.012346031002061482,0.03333333333333333
an0,an0,15910.0,an0_26,4.85469700595194,100,100.38102965861641,0.0,0.2750229098430901,,8,69.98622213737858,29,125.51434976339469,10,,0,,8,0.0,0.0,0.9094816331476742,0.06455238350803931,1.0,0.47103130226023815,0.5,0.9131307350193407,0.02506943824746242,0.9166666666666666,0.9420855051882262,1.0,0.9048072553489819,0.01790626831293545,0.2833333333333333
an0,an0,15970.0,an0_26,4.140411261376481,115,116.18450098758503,0.0,0.27203371163733797,159.95805692533574,20,77.36234895421859,36,115.64083506432752,21,,0,158.49622276754405,20,0.0,0.0,0.9104566988837026,0.05773799752557146,1.0,0.4681891541874803,0.5,0.8848160843935788,0.021950523566794417,0.7833333333333333,0.9431731938121926,1.0,0.9099267453546807,0.017677585656041654,0.36666666666666664
an0,an0,16030.0,an0_26,4.044245214122704,112,114.79639424540241,0.0,0.12944580235760045,111.28814157729998,13,100.5703600541858,15,87.51334331490355,24,,7,113.39459128782701,13,0.4719064066800964,0.5,0.9074815470745714,0.024492294928154495,0.8333333333333334,0.9699506455641611,1.0,0.9504667142334353,0.009496392815798555,0.18333333333333332,0.952930114824404,1.0,0.9277670008883355,0.010306814836753588,0.1
an0,an0,16090.0,an0_26,4.917881010492001,105,106.21724968136652,0.0,0.1475440188029009,193.00195817497553,11,,7,100.67485406400559,18,,0,141.30345596151096,10,0.0,0.0,0.9184481515471971,0.04963740200078122,1.0,0.9638541153538243,1.0,0.9409464927408768,0.01754175702801968,0.31666666666666665,0.48036134885844195,0.5,0.9343467123691167,0.02091203278555906,0.5333333333333333
an0,an0,16150.0,an0_26,8.10536561351689,86,85.24658640696963,0.0,0.018105518883821156,102.26121831287428,10,147.57838003992433,19,,9,,2,,9,0.0,0.0,0.9178541591145878,0.04198694347542064,0.9833333333333333,0.9542462808837902,1.0,0.9237438014729835,0.010902445737741837,0.0,0.9582605588632417,1.0,0.9304699841771662,0.01799104997486286,0.4
an0,an0,16210.0,an0_27,11.362148728152444,79,79.75234239286148,0.0,0.051700243638275745,,6,96.93745886389628,25,,3,,3,,6,0.0,0.0,0.9153921664874535,0.045051472268823896,0.8833333333333333,0.9459680760833159,1.0,0.9106187732110387,0.012708480971170747,0.15,0.4787819525100834,0.5,0.9318050752157818,0.02519239854929873,0.6833333333333333
an0,an0,16270.0,an0_27,15.63277566880835,82,82.52833816807623,0.0,0.11299550208575049,125.13556017431212,10,154.31494082407724,14,,7,,4,,9,0.0,0.0,0.9107600505716389,0.03921071230578649,0.8666666666666667,0.9542829084364098,1.0,0.9238048473940164,0.011312418121101767,0.08333333333333333,0.9490877345001264,1.0,0.9239119193630612,0.018547502247926506,0.43333333333333335
an0,an0,16330.0,an0_27,13.560159752585932,75,75.85114465700438,0.0,0.03072222134280733,178.51177854171135,11,127.06396832356116,22,97.2363130120729,12,211.09818982295369,10,175.44229820656136,11,0.4703227917750425,0.5,0.901075972583475,0.024577285815416357,0.75,0.9618539982961152,1.0,0.9364233304935252,0.007154165947025226,0.0,0.9404304779643069,1.0,0.9060114962069195,0.012962814657658184,0.25
an0,an0,16390.0,an0_27,15.780918590691062,74,74.2202696793869,0.0,0.06743062159339251,197.45978715326734,12,197.46411020666903,14,95.42188209413166,12,,8,198.65456542359243,12,0.46640470603152345,0.5,0.8888209969047436,0.029426799014921748,0.7833333333333333,0.9579362301719757,1.0,0.9298937169532928,0.008465535877559383,0.0,0.9330797544859283,1.0,0.8901423026298442,0.014920215988446828,0.4166666666666667
an0,an0,16450.0,an0_27,9.81654734049058,77,78.21217398582843,0.0,0.07539415830724495,231.01761972845276,11,145.97941238162906,15,,8,,0,232.85188425262956,11,0.0,0.0,0.8772137525033907,0.050091637337668055,0.9833333333333333,0.955011404251656,1.0,0.9256162195652433,0.015208375932551636,0.2833333333333333,0.0,0.0,0.8821724709101857,0.03268413730289862,0.8166666666666667
an0,an0,16510.0,an0_27,11.08165156753818,74,74.93457275123487,0.0,0.020578082030999163,194.87255137473022,17,115.73316309106262,21,251.03950552320114,16,173.05466381079324,16,200.76416512913852,17,0.46482176936791364,0.5,0.8827392312263788,0.02512523010935437,0.6833333333333333,0.9626005432171872,1.0,0.9376675720286454,0.007343249062307015,0.0,0.9338909289316576,1.0,0.8943433413119019,0.012528615514834874,0.23333333333333334
an0,an0,16570.0,an0_27,10.076328117996628,79,80.65144863433135,0.0,0.11860923781235248,,8,119.44932618663995,14,,7,,4,,8,0.0,0.0,0.9022007056023486,0.03373294517838215,0.9333333333333333,0.9629367622529799,1.0,0.9388623235885647,0.009329715191328495,0.16666666666666666,0.9515590761999324,1.0,0.9262626294383858,0.017497620111172656,0.35
an0,an0,16630.0,an0_27,9.977482093706826,91,90.91625400783084,0.0,0.09706539180117804,136.35954086957287,15,,9,97.33453953661852,10,,7,134.61054936371073,16,0.23473435895378186,0.25,0.8997349262065212,0.029878480449576333,0.9166666666666666,0.9615774628996933,1.0,0.9359624381661554,0.009908923878092904,0.21666666666666667,0.9524772447829244,1.0,0.9239945829112686,0.019302711899134392,0.48333333333333334
an0,an0,16690.0,an0_27,8.078815239386785,84,84.49817589554445,0.0,0.10671695839777273,100.09964111345089,13,122.07087053443878,15,80.81312838116094,21,151.0461565424622,11,101.89864245088515,13,0.4660797422669388,0.5,0.8721374582807084,0.022863071652199654,0.5166666666666667,0.9598833903442239,1.0,0.9331389839070399,0.007395214831221981,0.08333333333333333,0.9477832032662596,1.0,0.9158817463020003,0.009647585326024543,0.21666666666666667
an0,an0,16750.0,an0_27,21.747077993869006,88,91.317181860455,0.022222222222222254,0.23075968089884116,112.89486416623936,23,147.3811093941486,26,,7,,0,109.83458637258286,23,0.0,0.0,0.8892947599296057,0.0553068151044525,1.0,0.9476244041863785,1.0,0.9144625043305441,0.01836854370152242,0.36666666666666664,0.47393907911003264,0.5,0.912303085542484,0.022561271101942608,0.75
an0,an0,16810.0,an0_28,3.8021708636459373,95,99.14766061119653,0.020618556701030966,0.137755522090512,,4,103.21535298059631,12,,8,,1,,4,0.0,0.0,0.9186763426814996,0.03314239299572634,0.9166666666666666,0.9436748898909225,1.0,0.9061248164848709,0.011002740182374128,0.0,0.9488067371900485,1.0,0.9146778953167475,0.014515941513221442,0.0
an0,an0,16870.0,an0_28,6.534819744186794,95,96.0367244435616,0.0,0.04472036734824947,136.4554224289671,15,95.68319307746789,12,,9,,9,130.50198937475716,14,0.0,0.0,0.9256115970850809,0.030753303829161874,0.7666666666666667,0.945713628917185,1.0,0.9095227148619749,0.010186798439768573,0.0,0.9468256565042792,1.0,0.9126352579034767,0.01618615725097103,0.31666666666666665
an0,an0,16930.0,an0_28,7.488224774825529,84,85.2073627681148,0.0,0.03617267050754045,,9,,6,102.45997694221876,10,,6,,9,0.0,0.0,0.9291291774985442,0.03248329037634798,0.75,0.9458514369882292,1.0,0.9099216710182767,0.010923577630188676,0.15,0.9501721604098841,1.0,0.9202222324365696,0.015039914342401206,0.38333333333333336
an0,an0,16990.0,an0_28,7.0916270554429435,80,81.65203847719391,0.0,0.045674461279125646,212.3793315479404,17,212.65141905936233,20,92.19081032192146,13,139.99226338201044,12,169.50909513454826,16,0.4691149773025484,0.5,0.9014404929963753,0.02536764797394342,0.65,0.9338330883411329,1.0,0.8949437609547034,0.007744407614867622,0.13333333333333333,0.9587228453796368,1.0,0.931228598806433,0.01525761587422833,0.2833333333333333
an0,an0,17050.0,an0_28,6.64162612876401,81,81.69656534037266,0.0,0.0635836513041959,186.47781953700635,20,126.60375270762229,19,210.0404101047061,17,179.24348825437767,19,187.6587047639523,20,0.4688119668483469,0.5,0.8932179418774988,0.021822991364614037,0.5666666666666667,0.9377708734339101,1.0,0.8962847890565169,0.007248922970955706,0.0,0.9504322186694951,1.0,0.9173870311158252,0.0113886463997987,0.08333333333333333
an0,an0,17110.0,an0_28,9.233054896502706,81,83.52672089398726,0.02409638554216864,0.0789590029936628,211.4366988671572,12,162.6051342593462,11,250.36594310878226,11,172.30848114242986,10,198.26520347527176,12,0.47046917770952495,0.5,0.9026625457126842,0.026648640024893762,0.7833333333333333,0.9507717287031248,1.0,0.9179528811718747,0.009007288035776523,0.0,0.9277509732555613,1.0,0.8798530154366444,0.014209654502767836,0.2
an0,an0,17170.0,an0_28,7.971032675112129,79,80.31311406072203,0.0,0.0339037627317018,196.87848769232158,17,141.38885678698097,18,171.3689008551098,14,195.35155859453104,13,210.838661484251,18,0.47301103439123277,0.5,0.912294093323951,0.02769563628816341,0.8,0.9518118075953846,1.0,0.9196863459923078,0.0099575800245455,0.0,0.9281331713947757,1.0,0.8809637498965402,0.015881510243823362,0.36666666666666664
an0,an0,17230.0,an0_28,10.154797190137794,78,78.5652415586403,0.0,0.06660734119725543,154.46023569100956,10,,9,,6,,7,151.32745950421557,10,0.0,0.0,0.9238332542402876,0.03827661971947406,0.85,0.9534124764045628,1.0,0.922354127340938,0.013728749926693398,0.1,0.46942322606335696,0.5,0.8986982797609497,0.02561503653298955,0.55
an0,an0,17290.0,an0_28,11.003957443274846,86,88.65700157607343,0.022727272727272707,0.08006575656325762,198.24192024133598,10,190.40715010865532,13,,8,,4,198.35434062415786,10,0.0,0.0,0.9241149134283266,0.03218202663805282,0.9833333333333333,0.9502357892029355,1.0,0.9170596486715592,0.011909356529381429,0.08333333333333333,0.9390928569105801,1.0,0.8986982797609497,0.016820596552650117,0.3
an0,an0,17350.0,an0_28,7.095186098110742,90,93.22184001280408,0.021739130434782594,0.12623268589111294,295.60200520279074,15,233.73393229647002,13,,9,,4,296.4793416074719,15,0.0,0.0,0.907561962990179,0.03556085794481286,0.9166666666666666,0.9243412466164902,1.0,0.8739020776941504,0.012498839938068424,0.016666666666666666,0.9445357317107257,1.0,0.9078644378760558,0.015614048348221872,0.03333333333333333
an0,an0,17410.0,an0_29,4.787588487430695,112,115.8360418051933,0.0,0.13509900028070365,201.6832093739074,17,,6,,3,,1,204.22108118409324,17,0.0,0.0,0.893087719408806,0.05083379046899769,1.0,0.927979686580299,1.0,0.8823179244187999,0.01861136657524214,0.31666666666666665,0.47177000890205745,0.5,0.9072467647432048,0.02816304331855112,0.7333333333333333
an0,an0,17470.0,an0_29,6.520302039457934,119,120.35987602855361,0.0,0.10683895117571421,,7,241.73150310074638,14,,8,,2,,7,0.0,0.0,0.8969894598783191,0.04363556023491992,0.9166666666666666,0.9322643637738216,1.0,0.8893727328740366,0.014262295139630682,0.2833333333333333,0.9423197529430437,1.0,0.9051872829569371,0.018105586734416805,0.45
an0,an0,17530.0,an0_29,7.5039694909920165,107,106.30080292529092,0.0,0.06731284999482422,232.62366502841022,16,,8,150.86604863481318,12,,0,221.02036105300343,15,0.0,0.0,0.8924887296185491,0.047034359430059805,1.0,0.9429274468127103,1.0,0.904879078021184,0.015279257036510304,0.16666666666666666,0.4725922239374377,0.5,0.9083822755795,0.023167246518150206,0.6666666666666666
an0,an0,17590.0,an0_29,5.196986874273508,104,105.31655523588228,0.0,0.11985108538997738,247.66980443980248,11,,4,175.70310763116856,11,,0,266.2193217494314,12,0.0,0.0,0.8927750670341584,0.14194513537847084,1.0,0.0,0.0,0.9178986933264442,0.06137150644285004,1.0,0.0,0.0,0.9208165770070318,0.05636734757609005,1.0
an0,an0,17650.0,an0_29,4.393424182104927,114,116.47929677577794,0.0,0.14013302785266576,279.04408358884353,13,,8,172.61912779657416,11,,1,,7,0.0,0.0,0.8916950723570767,0.13252372593974093,1.0,0.0,0.0,0.9294992856489397,0.0702467194936353,0.95,0.0,0.0,0.9207395299436137,0.04670741209043697,0.9333333333333333
an0,an0,17710.0,an0_29,5.739858820661042,104,105.34715839233796,0.0,0.06809978123382585,208.66835042418387,16,,9,,5,,0,165.22711641858305,15,0.0,0.0,0.8935735574236965,0.07524472846294289,1.0,0.477425512132471,0.5,0.9299160256249743,0.02785967264432694,0.6833333333333333,0.2365625856490041,0.25,0.9131243362774664,0.029756966839267998,0.7
an0,an0,17770.0,an0_29,7.914925799564689,91,91.49661005080641,0.0,0.07838572746659177,,9,,6,,8,,0,,9,0.0,0.0,0.9102317831962229,0.052419672661423014,0.9833333333333333,0.4736476490709992,0.5,0.9182404633574569,0.028733617905845957,0.9333333333333333,0.46910498321405103,0.5,0.8939824329982523,0.021812715765351605,0.65
an0,an0,17830.0,an0_29,8.719717018542054,86,88.239511447212,0.022727272727272707,0.09121309663239915,176.59068444210405,14,202.0705805683994,11,,8,,2,175.89332431465823,14,0.0,0.0,0.9227074105671453,0.05136902591676939,1.0,0.46592147371589177,0.5,0.9050221541953261,0.02825459449789073,0.8166666666666667,0.9258260953011659,1.0,0.8856994923918917,0.016926138672916397,0.35
an0,an0,17890.0,an0_29,8.35163891645926,87,88.98591649594687,0.022471910112359605,0.09786211282306631,248.5922277608956,11,,8,,7,,2,244.9693858423946,11,0.0,0.0,0.9208566536372748,0.05118110087521026,0.9666666666666667,0.0,0.0,0.8767988089566956,0.030459374862193432,0.8833333333333333,0.9238521037505878,1.0,0.873589300215697,0.017406620539065158,0.4
an0,an0,17950.0,an0_29,11.92666963544969,79,82.115739397577,0.0,0.0728266287280789,,6,,5,,6,,1,,6,0.0,0.0,0.9201643688821185,0.07319214145653696,0.9333333333333333,0.0,0.0,0.8613328013853534,0.05032410571175717,0.9,0.9230402791843253,1.0,0.8743027184273279,0.017563078411220734,0.2833333333333333
an0,an0,18010.0,an0_30,11.117356131975573,73,74.02910824531438,0.0,0.02927924085761976,259.56061950701155,12,139.4384742732037,10,,7,,6,263.81811916545837,12,0.0,0.0,0.9115361103439283,0.05522164051351092,0.8666666666666667,0.0,0.0,0.8591054412609077,0.0321067004749295,0.75,0.9251089269849027,1.0,0.876951453608325,0.01659529165223378,0.4
an0,an0,18070.0,an0_30,12.29643602295402,75,75.78522971153515,0.0,0.047772235529590264,,7,,7,,2,,2,,7,0.0,0.0,0.9083786075160365,0.06447907945380492,0.9833333333333333,0.0,0.0,0.8692665163630695,0.030505099919329356,0.8666666666666667,0.46415932482626465,0.5,0.8805310827542155,0.022991314224946855,0.7833333333333333
an0,an0,18130.0,an0_30,19.314560637088675,83,86.21953217305088,0.02352941176470591,0.13591512275503184,256.2582281106927,12,,9,,5,,0,256.1072218640253,12,0.0,0.0,0.9015337034913854,0.06345138198727801,1.0,0.0,0.0,0.894455198103173,0.03715635718164131,1.0,0.4680707493785806,0.5,0.8817740203531839,0.02216111907657472,0.5833333333333334
an0,an0,18190.0,an0_30,19.30600127945018,90,96.02465913242915,0.052631578947368474,0.1428291348728246,231.06751903003254,19,95.57681928907587,16,142.89369220380098,14,,3,231.58024908162156,18,0.0,0.0,0.9074699794335102,0.03904269031488003,0.8666666666666667,0.23404268879546192,0.25,0.9140485442102717,0.03018555348129052,0.7833333333333333,0.9453743569041365,1.0,0.9142379910908847,0.011660778219256693,0.18333333333333332
an0,an0,18250.0,an0_30,11.594145457814227,90,92.97064451894835,0.0,0.03670234042367731,190.5236783632036,12,,7,122.0184785783831,31,257.2846697306489,12,252.20842751401253,12,0.9447592972624927,1.0,0.9108977971181452,0.018541730156457235,0.2833333333333333,0.9484723934161883,1.0,0.9141206556936471,0.0110311525064731,0.0,0.9547239934300913,1.0,0.9245399890501522,0.005807616013720237,0.0
an0,an0,18310.0,an0_30,12.924650881988612,82,84.43046025850107,0.023809523809523836,0.12359315252737017,144.33051939255606,11,81.01280422580996,18,145.77335663602662,20,,6,198.2422760159901,12,0.0,0.0,0.9105430415609868,0.031109896388729606,0.6333333333333333,0.9456109013567036,1.0,0.9114434621588531,0.01953071216346902,0.43333333333333335,0.9504792190775161,1.0,0.9174653651291934,0.008115668196355112,0.0
an0,an0,18370.0,an0_30,10.108818624922005,82,85.35360576309328,0.023809523809523836,0.04928833210219872,162.82337797371952,12,96.31896879639025,18,126.60910921595782,31,162.82337797371952,12,165.0068869086158,12,0.47233699011046487,0.5,0.9074227754746438,0.02248464676339139,0.65,0.9516036468442288,1.0,0.9194775224906164,0.014895257122883719,0.23333333333333334,0.9510010982341812,1.0,0.9183351637236354,0.007039257889944871,0.016666666666666666
an0,an0,18430.0,an0_30,11.348173024129007,75,76.88305830538353,0.0,0.034641695303813294,104.26834230499327,25,85.90521087618502,34,164.01104182876017,48,97.94454727565291,24,99.89577902327338,25,0.9490657358113368,1.0,0.9201743026610606,0.013129319203241657,0.23333333333333334,0.9515875876551089,1.0,0.9208845081843249,0.00874717597311351,0.21666666666666667,0.9600417520624945,1.0,0.9334029201041576,0.00536590132483671,0.08333333333333333
an0,an0,18490.0,an0_30,12.984880728530866,71,71.86162325794376,0.0,0.04569535834364827,148.56308649325638,37,83.53653610596584,40,151.2461860464741,44,145.72234828665975,36,146.2114146630754,37,0.9593939282819814,1.0,0.9369618961367413,0.01392606635493259,0.3333333333333333,0.9749823722126314,1.0,0.9585872300289683,0.00980174127365626,0.18333333333333332,0.964118834071094,1.0,0.9403546471336106,0.0058583735945216256,0.05
an0,an0,18550.0,an0_30,15.688984886944347,71,71.27177352681014,0.0,0.046197883510164274,,6,152.59394519237978,11,153.30136816589112,23,,6,,6,0.4830526283400467,0.5,0.943508761133489,0.0240421760059679,0.75,0.9726233280165097,1.0,0.9544272730706137,0.01574970469458254,0.31666666666666665,0.9655196088265644,1.0,0.9425326813776074,0.009135289212154132,0.1
an0,an0,18610.0,an0_31,16.20752617518281,69,70.42360975006369,0.0,0.03984524784378424,209.82283459175366,20,82.07601842758898,28,173.58087619866583,30,158.57643070456592,16,192.71092340601766,17,0.9539332352578049,1.0,0.9243924467038505,0.01860256553974662,0.4,0.9751143778144644,1.0,0.9585239630241074,0.01168228616460354,0.0,0.9647598742248187,1.0,0.9412664570413645,0.007152027577812399,0.0
