record,subject,activity,t0,ref_rmssd,ref_n,ref_hr,acc_sd,rmssd_off,n_off,rmssd_sensor2_off,n_sensor2_off,rmssd_inverted_off,n_inverted_off,rmssd_inloop_0.2,n_inloop_0.2,rmssd_inloop_0.3,n_inloop_0.3,rmssd_inloop_0.4,n_inloop_0.4,rmssd_v2,n_v2,rmssd_v2_inloop_0.4,n_v2_inloop_0.4,sqi_full_off,sqi_amp_off,sqi_per_off,mod_median_off,penalty_lt1_frac_off,sqi_full_sensor2_off,sqi_amp_sensor2_off,sqi_per_sensor2_off,mod_median_sensor2_off,penalty_lt1_frac_sensor2_off,sqi_full_inverted_off,sqi_amp_inverted_off,sqi_per_inverted_off,mod_median_inverted_off,penalty_lt1_frac_inverted_off,sqi_full_v2,sqi_amp_v2,sqi_per_v2,mod_median_v2,penalty_lt1_frac_v2,n_nan_samples
s1_walk,1,walk,10.0,13.667322302657393,94,93.45794392523321,1.8714249901833842,115.86303303574624,67,190.84606944399516,55,54.43023610466556,84,115.86303303574624,67,115.86303303574624,67,115.86303303574624,67,54.43023610466556,84,54.43023610466556,84,0.9549563006658013,1.0,0.9249271677763355,0.005912879315759298,0.0,0.9614633684652701,1.0,0.9357722807754503,0.005816820746180571,0.0,0.9819653428207826,1.0,0.9699422380346379,0.00577880389721501,0.0,0.9820259393489503,1.0,0.9700432322482506,0.005912879315759298,0.0,0
s1_walk,1,walk,70.0,10.47503297319225,96,96.93053311793219,2.0069922900764587,136.73227229046654,71,217.11172239195193,57,41.486276177925525,91,136.73227229046654,71,136.73227229046654,71,136.73227229046654,71,41.486276177925525,91,41.486276177925525,91,0.9594130765383411,1.0,0.9323551275639017,0.006385191928943726,0.0,0.9656321158579775,1.0,0.9427201930966291,0.006823717026905297,0.0,0.9846969802934218,1.0,0.974494967155703,0.006349144199468662,0.0,0.9846969802934218,1.0,0.974494967155703,0.006385191928943726,0.0,0
s1_walk,1,walk,130.0,11.700984722588991,93,94.33962264150585,1.7616182180621445,134.03248069909375,69,169.98235202514408,51,53.055571027190695,95,134.03248069909375,69,134.03248069909375,69,134.03248069909375,69,53.055571027190695,95,53.055571027190695,95,0.958258643256682,1.0,0.93043107209447,0.0060765293967252505,0.0,0.9598221599096676,1.0,0.9330369331827794,0.005387880111743204,0.0,0.9844030603505216,1.0,0.9740051005842028,0.006082243226918394,0.0,0.9844030603505216,1.0,0.9740051005842028,0.0060765293967252505,0.0,0
s1_walk,1,walk,190.0,12.766275015748125,91,92.02453987729847,1.8537063008697128,163.62264030705722,77,150.61777546396803,57,51.63268408609091,92,163.62264030705722,77,163.62264030705722,77,163.62264030705722,77,51.63268408609091,92,51.63268408609091,92,0.9553784340876627,1.0,0.9256307234794379,0.00607384540117663,0.0,0.9689781875918302,1.0,0.9482969793197169,0.004962463222217698,0.0,0.9842976950926314,1.0,0.9738294918210523,0.006081110392367979,0.0,0.9842976950926314,1.0,0.9738294918210523,0.00607384540117663,0.0,0
s1_walk,1,walk,250.0,18.253268698556692,89,90.90909090908747,2.0027061327817757,154.79767065618174,70,127.57522720532866,58,57.619441163551734,86,154.79767065618174,70,154.79767065618174,70,154.79767065618174,70,57.619441163551734,86,57.619441163551734,86,0.9541402127131458,1.0,0.9235670211885763,0.006742384952054939,0.0,0.9693279218415127,1.0,0.9488798697358545,0.007357040216016263,0.0,0.9813204405661493,1.0,0.9688674009435821,0.006744469509597176,0.0,0.9813204405661493,1.0,0.9688674009435821,0.006742384952054939,0.0,0
s1_walk,1,walk,310.0,13.56946700436528,93,93.750000000002,1.7132970968834824,145.43832951566685,66,93.69403091217407,57,55.19727466492148,93,145.43832951566685,66,145.43832951566685,66,145.43832951566685,66,55.19727466492148,93,55.19727466492148,93,0.9555142462013566,1.0,0.9258570770022612,0.006435240965617452,0.0,0.9756079468875409,1.0,0.9593465781459016,0.005742930830783696,0.0,0.983617365234033,1.0,0.9726956087233884,0.006442333301726456,0.0,0.983617365234033,1.0,0.9726956087233884,0.006435240965617452,0.0,0
s1_walk,1,walk,370.0,13.68563857833944,92,92.73570324575086,1.6570024262631056,151.0610619731122,73,178.05573889612813,53,55.19197266046799,92,151.0610619731122,73,151.0610619731122,73,151.0610619731122,73,55.19197266046799,92,55.19197266046799,92,0.9574816238005281,1.0,0.929136039667547,0.006261303615604799,0.0,0.9577828990339614,1.0,0.9296381650566024,0.005031939560148558,0.0,0.9831367714591669,1.0,0.9718946190986115,0.006287861261503517,0.0,0.9831367714591669,1.0,0.9718946190986115,0.006261303615604799,0.0,0
s1_walk,1,walk,430.0,14.854365483347713,93,94.04388714733047,1.792174533558435,143.33894317867336,77,147.92719878491204,58,53.13263519793577,92,143.33894317867336,77,143.33894317867336,77,143.33894317867336,77,53.13263519793577,92,53.13263519793577,92,0.9573478756377309,1.0,0.9289131260628849,0.006725698451469492,0.0,0.95253676497584,1.0,0.9208946082930667,0.006195082898629026,0.0,0.9842178798853813,1.0,0.9736964664756357,0.006747469572475229,0.0,0.9842178798853813,1.0,0.9736964664756357,0.006725698451469492,0.0,0
s1_run,1,run,10.0,27.578459503232764,78,78.84362680683302,1.4834762401683257,205.77380091463817,22,288.4982668925413,17,,4,205.77380091463817,22,205.77380091463817,22,205.77380091463817,22,,4,,4,0.9476498976140534,1.0,0.9127498293567555,0.0011517895181411548,0.0,0.9391695448014646,1.0,0.8986159080024411,0.0006209147035816001,0.0,0.8270061865148577,1.0,0.7116769775247627,0.001156066248000342,0.0,0.8270061865148577,1.0,0.7116769775247627,0.0011517895181411548,0.0,0
s1_run,1,run,70.0,25.9130696654649,79,79.36507936507934,1.796036146449912,241.72987679087856,22,174.35595774162695,22,,4,241.72987679087856,22,241.72987679087856,22,241.72987679087856,22,,4,,4,0.947793302645387,1.0,0.9129888377423117,0.0012489941729833015,0.0,0.9462351460300031,1.0,0.9103919100500053,0.0005656727213665981,0.0,0.8411874184802348,1.0,0.7353123641337246,0.0012493842288120996,0.0,0.8411874184802348,1.0,0.7353123641337246,0.0012489941729833015,0.0,0
s1_run,1,run,130.0,30.473894202216602,80,81.4111261872446,2.039732619871776,228.60188872669394,18,187.19288573711404,35,,2,228.60188872669394,18,228.60188872669394,18,228.60188872669394,18,,2,,2,0.950461993201505,1.0,0.9174366553358417,0.001373325410386362,0.0,0.9556657251011639,1.0,0.9261095418352732,0.0005501678694661083,0.0,0.8659170666369479,1.0,0.7765284443949132,0.0013717149081096088,0.0,0.8659170666369479,1.0,0.7765284443949132,0.001373325410386362,0.0,0
s1_run,1,run,190.0,27.803543605754868,82,83.56545961002745,1.9874366033465383,210.3146644067316,32,204.07514955688913,31,133.32291625973383,13,210.3146644067316,32,210.3146644067316,32,210.3146644067316,32,133.32291625973383,13,133.32291625973383,13,0.9441818008106021,1.0,0.9069696680176701,0.0010441656503303583,0.0,0.969648876281674,1.0,0.9494147938027899,0.00045498225048119475,0.0,0.8833447655458254,1.0,0.8055746092430424,0.0010411895756266597,0.0,0.8833447655458254,1.0,0.8055746092430424,0.0010441656503303583,0.0,0
s1_run,1,run,250.0,29.779531776378718,79,80.21390374331654,1.625697633591938,172.81555888086103,24,233.26025128080911,30,112.57320850329918,34,172.81555888086103,24,172.81555888086103,24,172.81555888086103,24,112.57320850329918,34,112.57320850329918,34,0.9316626257194057,1.0,0.8861043761990095,0.0009287475080109596,0.0,0.9685233265924871,1.0,0.9475388776541451,0.00039106685101783273,0.0,0.9221484801773325,1.0,0.8702474669622208,0.0009272645636611562,0.0,0.9221484801773325,1.0,0.8702474669622208,0.0009287475080109596,0.0,0
s1_run,1,run,310.0,24.212732399637684,79,80.21390374331654,1.9496813368848736,119.58260743101398,14,224.9187887626588,27,196.18734333338256,20,119.58260743101398,14,119.58260743101398,14,119.58260743101398,14,196.18734333338256,20,196.18734333338256,20,0.8975230480961303,1.0,0.829205080160217,0.0012158522584525275,0.0,0.9674715611910201,1.0,0.9457859353183667,0.0005013461300482273,0.0,0.9522412461011169,1.0,0.9204020768351948,0.001208584093210758,0.0,0.9522412461011169,1.0,0.9204020768351948,0.0012158522584525275,0.0,0
s1_run,1,run,370.0,25.90614222781464,79,78.53403141361154,1.788525575733936,206.42795353343016,25,234.38841915607256,30,123.25054837370341,44,206.42795353343016,25,206.42795353343016,25,206.42795353343016,25,123.25054837370341,44,123.25054837370341,44,0.9125654229150727,1.0,0.8542757048584544,0.0011101681076852803,0.0,0.965447144461188,1.0,0.9424119074353132,0.0004226032549838435,0.0,0.9591662223416013,1.0,0.9319437039026688,0.001115199303068767,0.0,0.9591662223416013,1.0,0.9319437039026688,0.0011101681076852803,0.0,0
s1_run,1,run,430.0,24.468346899609898,81,81.74386920981144,1.8083536337627442,169.25280389969018,44,208.2761324982319,39,94.13347497628627,55,169.25280389969018,44,169.25280389969018,44,169.25280389969018,44,94.13347497628627,55,94.13347497628627,55,0.9503389944283364,1.0,0.9172316573805606,0.00097754145912752,0.0,0.9661593822146346,1.0,0.9435989703577243,0.0005739499272558407,0.0,0.9687928508680836,1.0,0.9479880847801394,0.0009823984440500073,0.0,0.9687928508680836,1.0,0.9479880847801394,0.00097754145912752,0.0,0
s1_sit,1,sit,10.0,27.822332608549903,74,74.6268656716416,0.015571727032272532,129.4808008076015,73,80.68933777624669,66,32.624891749151224,74,129.4808008076015,73,129.4808008076015,73,129.4808008076015,73,32.624891749151224,74,32.624891749151224,74,0.9692784931335059,1.0,0.948797488555843,0.0020581956963033393,0.0,0.977018849586212,1.0,0.9616980826436865,0.0012305739051343225,0.0,0.9866869664182537,1.0,0.9778116106970896,0.002065450248494489,0.0,0.9865773237093511,1.0,0.9776288728489186,0.0020581956963033393,0.0,0
s1_sit,1,sit,70.0,29.195608602044615,74,74.44168734491339,0.01557269078526007,136.82627149574958,71,111.40109551361088,50,31.601402637361662,75,136.82627149574958,71,136.82627149574958,71,136.82627149574958,71,31.601402637361662,75,31.601402637361662,75,0.9669877226694077,1.0,0.944979537782346,0.0020878026086544594,0.0,0.9779313381632494,1.0,0.963218896938749,0.0013532262900095957,0.0,0.9843203663692728,1.0,0.9738672772821213,0.002093638027666338,0.0,0.9843203663692728,1.0,0.9738672772821213,0.0020878026086544594,0.0,0
s1_sit,1,sit,130.0,24.096051923709624,72,73.89162561576376,0.015700858721324158,130.87313619600386,73,89.37941175283612,54,26.06630113373435,74,130.87313619600386,73,130.87313619600386,73,130.87313619600386,73,26.06630113373435,74,26.06630113373435,74,0.9721884118034205,1.0,0.9536473530057008,0.0018025944700885209,0.0,0.9710914413898294,1.0,0.951819068983049,0.0012920891992321123,0.0,0.9901152258655037,1.0,0.9835253764425061,0.0018011925534760964,0.0,0.9901152258655037,1.0,0.9835253764425061,0.0018025944700885209,0.0,0
s1_sit,1,sit,190.0,35.310629840183786,70,70.25761124121786,0.015805524701390978,156.00295855182708,66,117.73503497913636,53,36.87817782917155,71,156.00295855182708,66,156.00295855182708,66,156.00295855182708,66,36.87817782917155,71,36.87817782917155,71,0.9692490421470368,1.0,0.9487484035783946,0.0018257987699070567,0.0,0.9748847740293967,1.0,0.9581412900489944,0.0012713276788953738,0.0,0.9892516312704409,1.0,0.9820860521174015,0.0018215504054047886,0.0,0.9892516312704409,1.0,0.9820860521174015,0.0018257987699070567,0.0,0
s1_sit,1,sit,250.0,33.17760725532556,70,70.09345794392569,0.01568698292747299,124.09063159032131,67,91.86694119062052,44,35.35533905932738,71,124.09063159032131,67,124.09063159032131,67,124.09063159032131,67,35.35533905932738,71,35.35533905932738,71,0.9689022315730935,1.0,0.948170385955156,0.001740296983832774,0.0,0.9745373751307698,1.0,0.9575622918846163,0.0014465380612144908,0.0,0.9785377863830438,1.0,0.9642296439717395,0.0017405479895886609,0.0,0.9785377863830438,1.0,0.9642296439717395,0.001740296983832774,0.0,0
s1_sit,1,sit,310.0,30.63009791938618,70,70.83825265643377,0.015732777081557812,125.52575997742633,68,88.84884719037622,52,32.88098873650023,70,125.52575997742633,68,125.52575997742633,68,125.52575997742633,68,32.88098873650023,70,32.88098873650023,70,0.9685909494214443,1.0,0.9476515823690739,0.0021192653924441344,0.0,0.9696860794034498,1.0,0.9494767990057497,0.0015126294515995424,0.0,0.9813549867347955,1.0,0.9689249778913258,0.0021208012450782115,0.0,0.9813549867347955,1.0,0.9689249778913258,0.0021192653924441344,0.0,0
s1_sit,1,sit,370.0,30.58477679219548,71,70.92198581560253,0.01563414575543383,144.25721793912507,70,106.34848376916335,41,34.10836087662585,72,144.25721793912507,70,144.25721793912507,70,144.25721793912507,70,34.10836087662585,72,34.10836087662585,72,0.971342627829117,1.0,0.9522377130485282,0.0021398529903197136,0.0,0.9737302264678815,1.0,0.9562170441131359,0.0014676158135531782,0.0,0.9827445989987678,1.0,0.9712409983312795,0.002136536722251312,0.0,0.9827445989987678,1.0,0.9712409983312795,0.0021398529903197136,0.0,0
s1_sit,1,sit,430.0,29.213499814789255,71,71.59904534606015,0.0160237350364995,134.75590870005465,72,148.1271975926996,49,34.067042435199596,72,134.75590870005465,72,134.75590870005465,72,134.75590870005465,72,34.067042435199596,72,34.067042435199596,72,0.9674915945351628,1.0,0.9458193242252714,0.0020885788195899786,0.0,0.9659380643736168,1.0,0.9432301072893614,0.0015161001823577572,0.0,0.9842510755172554,1.0,0.9737517925287591,0.0020734480872455375,0.0,0.9842510755172554,1.0,0.9737517925287591,0.0020885788195899786,0.0,0
s2_walk,2,walk,10.0,3.821603218911023,130,131.29102844638928,0.6725214116222058,195.91133198465064,33,53.519021985511976,15,36.43021402390001,82,195.91133198465064,33,195.91133198465064,33,195.91133198465064,33,36.43021402390001,82,36.43021402390001,82,0.9358576741946258,1.0,0.8930961236577097,0.005904703730649038,0.0,0.9818220877403921,1.0,0.9697034795673202,0.0037163983379547615,0.0,0.9807888168480006,1.0,0.9679813614133342,0.005838426839109111,0.0,0.952346444427911,1.0,0.9205774073798517,0.005904703730649038,0.0,0
s2_walk,2,walk,70.0,2.9128763250194623,133,134.5291479820634,0.5824681727220735,214.03683025564163,35,81.5959235307874,20,39.252891278021934,77,214.03683025564163,35,214.03683025564163,35,214.03683025564163,35,39.252891278021934,77,39.252891278021934,77,0.9351414051690105,1.0,0.8919023419483508,0.0063968179875431175,0.0,0.9681297399298667,1.0,0.9468828998831113,0.00315991667222859,0.0,0.9828415593107251,1.0,0.9714025988512085,0.006329589461782399,0.0,0.9828415593107251,1.0,0.9714025988512085,0.0063968179875431175,0.0,0
s2_walk,2,walk,130.0,4.303450364460379,128,129.87012987012494,0.5138449839053834,144.0117840296201,34,69.33974329343886,26,36.67140120948021,97,144.0117840296201,34,144.0117840296201,34,144.0117840296201,34,36.67140120948021,97,36.67140120948021,97,0.947829875508591,1.0,0.9130497925143183,0.005167592920797664,0.0,0.9684081580684777,1.0,0.9473469301141295,0.002565828492992483,0.0,0.9827773520004794,1.0,0.9712955866674657,0.00518962675718759,0.0,0.9827773520004794,1.0,0.9712955866674657,0.005167592920797664,0.0,0
s2_walk,2,walk,190.0,4.184711581893597,128,128.75536480687254,0.45086900577256067,94.89467845985885,41,67.42720942934366,29,28.229545098971137,98,94.89467845985885,41,94.89467845985885,41,94.89467845985885,41,28.229545098971137,98,28.229545098971137,98,0.9380447126992475,1.0,0.8967411878320792,0.004881036788044093,0.0,0.9674782344878963,1.0,0.9457970574798272,0.0022400482783363307,0.0,0.9870585218771799,1.0,0.9784308697952999,0.004872967757650286,0.0,0.9870585218771799,1.0,0.9784308697952999,0.004881036788044093,0.0,0
s2_walk,2,walk,250.0,5.5705699887902265,129,131.57894736841607,0.5105386910458174,63.31426104894468,24,95.62295749452639,17,44.840988902055734,57,63.31426104894468,24,63.31426104894468,24,63.31426104894468,24,44.840988902055734,57,44.840988902055734,57,0.9364413387165194,1.0,0.8940688978608656,0.005820318478524227,0.0,0.9682949793670886,1.0,0.9471582989451478,0.0028121044207006195,0.0,0.9837155567962099,1.0,0.9728592613270165,0.005794829162000053,0.0,0.9837155567962099,1.0,0.9728592613270165,0.005820318478524227,0.0,0
s2_walk,2,walk,310.0,3.7169052470286177,131,132.1585903083678,0.4230488791191379,63.475717141806804,25,67.40734381356381,17,34.64101615137755,81,63.475717141806804,25,63.475717141806804,25,63.475717141806804,25,34.64101615137755,81,34.64101615137755,81,0.9700135795484002,1.0,0.950022632580667,0.005152593967068974,0.0,0.9637617759170225,1.0,0.9396029598617042,0.0023062697046869482,0.0,0.9845697868733644,1.0,0.9742829781222739,0.005127096443134457,0.0,0.9845697868733644,1.0,0.9742829781222739,0.005152593967068974,0.0,0
s2_walk,2,walk,370.0,3.2675932051465466,128,129.3103448275866,0.3386332819341985,88.88194417315589,38,64.40201120787337,22,28.447482476649128,109,88.88194417315589,38,88.88194417315589,38,88.88194417315589,38,28.447482476649128,109,28.447482476649128,109,0.9704064270032008,1.0,0.950677378338668,0.004463028039444221,0.0,0.9635353343714018,1.0,0.9392255572856697,0.0019068365864424906,0.0,0.9850789104033785,1.0,0.9751315173389641,0.004454204537241392,0.0,0.9850789104033785,1.0,0.9751315173389641,0.004463028039444221,0.0,0
s2_walk,2,walk,430.0,4.259311245198768,128,129.87012987013293,0.33493406545350757,64.10440702479042,33,75.96600116718882,25,28.967065938594974,111,64.10440702479042,33,64.10440702479042,33,64.10440702479042,33,28.967065938594974,111,28.967065938594974,111,0.9597773538360427,1.0,0.9329622563934045,0.004389184237650309,0.0,0.9627348989085797,1.0,0.9378914981809661,0.0019665347511584304,0.0,0.9853218149881753,1.0,0.9755363583136254,0.004406289286202273,0.0,0.9853218149881753,1.0,0.9755363583136254,0.004389184237650309,0.0,0
s2_run,2,run,10.0,3.4943563521463994,134,135.74660633484046,3.482916686603191,41.59643203322536,77,66.69443865981742,55,76.57344228576945,64,41.59643203322536,77,41.59643203322536,77,41.59643203322536,77,76.57344228576945,64,76.57344228576945,64,0.9811731818214915,1.0,0.9686219697024857,0.006510114548119653,0.0,0.986449555210636,1.0,0.9774159253510601,0.01682678454243232,0.08333333333333333,0.9735500479752484,1.0,0.9559167466254139,0.006541823122299189,0.0,0.9735702054683639,1.0,0.9559503424472732,0.006510114548119653,0.0,0
s2_run,2,run,70.0,3.027239518849212,135,136.36363636363706,2.9982068786170677,41.21444087921491,74,72.90759385262491,59,69.02577027476997,80,41.21444087921491,74,41.21444087921491,74,41.21444087921491,74,69.02577027476997,80,69.02577027476997,80,0.9850508636713962,1.0,0.9750847727856604,0.00723954638034735,0.0,0.49311920969068773,0.5,0.9765452268183827,0.020579815073197928,0.6833333333333333,0.9726575964642379,1.0,0.9544293274403965,0.007241631074028658,0.0,0.9726575964642379,1.0,0.9544293274403965,0.00723954638034735,0.0,0
s2_run,2,run,130.0,2.640187159143207,137,138.24884792626807,2.835321107442259,35.082320772281165,66,87.31873455054632,58,49.94026282215852,68,35.082320772281165,66,35.082320772281165,66,35.082320772281165,66,49.94026282215852,68,49.94026282215852,68,0.9837861506822654,1.0,0.9729769178037757,0.006354479018949182,0.0,0.9862188870782547,1.0,0.9773792336304364,0.01867270523897797,0.16666666666666666,0.9716932999415974,1.0,0.952822166569329,0.006378109949563367,0.0,0.9716932999415974,1.0,0.952822166569329,0.006354479018949182,0.0,0
s2_run,2,run,190.0,3.5671610113894685,139,140.18691588785137,2.9089545331775857,41.98020560142199,78,87.50824137012644,53,55.89531030673069,71,41.98020560142199,78,41.98020560142199,78,41.98020560142199,78,55.89531030673069,71,55.89531030673069,71,0.9824853334161131,1.0,0.9708088890268551,0.007913160268789271,0.0,0.49135909613833273,0.5,0.9705054661490871,0.02015988860506515,0.5666666666666667,0.9810629991158771,1.0,0.9684383318597952,0.007875895252767775,0.0,0.9810629991158771,1.0,0.9684383318597952,0.007913160268789271,0.0,0
s2_run,2,run,250.0,2.739279035630105,138,139.534883720928,2.7158708580592483,37.58626441570475,56,73.74100520779876,54,44.99206279207161,71,37.58626441570475,56,37.58626441570475,56,37.58626441570475,56,44.99206279207161,71,44.99206279207161,71,0.983335278313693,1.0,0.972225463856155,0.0076056925714013575,0.0,0.9828777474788386,1.0,0.9754380736998887,0.019884013443844197,0.48333333333333334,0.9801492004036129,1.0,0.9669153340060215,0.007592172820698303,0.0,0.9801492004036129,1.0,0.9669153340060215,0.0076056925714013575,0.0,0
s2_run,2,run,310.0,2.4260491103266846,141,141.50943396227143,2.65877748253897,53.117121264509166,57,97.86496319116543,50,61.80889080909677,60,53.117121264509166,57,53.117121264509166,57,53.117121264509166,57,61.80889080909677,60,61.80889080909677,60,0.9820472951445626,1.0,0.9700788252409377,0.007459945170768351,0.0,0.9836372039548533,1.0,0.9737009828823288,0.019350611373176004,0.3333333333333333,0.9767425576144962,1.0,0.9612375960241605,0.007452238370293461,0.0,0.9767425576144962,1.0,0.9612375960241605,0.007459945170768351,0.0,0
s2_run,2,run,370.0,2.5432430293574786,142,142.18009478674043,3.5826029859536095,40.86098693331522,80,101.17491604327446,56,71.84087354084102,73,40.86098693331522,80,40.86098693331522,80,40.86098693331522,80,71.84087354084102,73,71.84087354084102,73,0.9805016148658712,1.0,0.9675026914431186,0.009258651639352893,0.0,0.9773360065445151,1.0,0.9622266775741921,0.01746934844830634,0.2,0.9722078292451837,1.0,0.9536797154086395,0.009182186800296796,0.0,0.9722078292451837,1.0,0.9536797154086395,0.009258651639352893,0.0,0
s2_run,2,run,430.0,2.3012550158350273,143,144.92753623186863,3.5005659027260085,31.478708533055972,78,80.7832032413046,55,50.65149327010807,62,31.478708533055972,78,31.478708533055972,78,31.478708533055972,78,50.65149327010807,62,50.65149327010807,62,0.9883416351866707,1.0,0.9805693919777847,0.00972507567385475,0.0,0.492354756858408,0.5,0.9718233526065516,0.02043582894625101,0.55,0.978204438460683,1.0,0.9636740641011383,0.009617642349378973,0.0,0.978204438460683,1.0,0.9636740641011383,0.00972507567385475,0.0,0
s2_sit,2,sit,10.0,4.069641688290881,122,122.44897959183623,0.013635369770531841,24.473625259314023,97,54.12947441089743,51,9.542374472273957,124,24.473625259314023,97,24.473625259314023,97,24.473625259314023,97,9.542374472273957,124,9.542374472273957,124,0.9919045225078135,1.0,0.9865075375130224,0.0031858966539403026,0.0,0.9811948147660161,1.0,0.9686580246100268,0.003592597161052725,0.0,0.9915935878466366,1.0,0.9859893130777277,0.0032145451592170793,0.0,0.9915935878466366,1.0,0.9859893130777277,0.0031858966539403026,0.0,0
s2_sit,2,sit,70.0,3.836836128297417,123,122.95081967213126,0.0134723429553804,10.513149660756936,96,58.2272355423483,74,9.321225557920984,123,10.513149660756936,96,10.513149660756936,96,10.513149660756936,96,9.321225557920984,123,9.321225557920984,123,0.9913995034894469,1.0,0.9856658391490782,0.003077446589905554,0.0,0.9756567054283036,1.0,0.959427842380506,0.00299841839740806,0.0,0.9916460591906326,1.0,0.986076765317721,0.003104906626561789,0.0,0.9916460591906326,1.0,0.986076765317721,0.003077446589905554,0.0,0
s2_sit,2,sit,130.0,3.582364210032838,121,122.44897959183446,0.013600039062837617,38.9179488356341,90,45.85783658733356,69,9.833321660356335,122,38.9179488356341,90,38.9179488356341,90,38.9179488356341,90,9.833321660356335,122,9.833321660356335,122,0.9834307290781544,1.0,0.9723845484635907,0.0031927402450190852,0.0,0.9787426557393044,1.0,0.9645710928988407,0.003255169072071148,0.0,0.9924029338007141,1.0,0.98733822300119,0.003198743207654926,0.0,0.9924029338007141,1.0,0.98733822300119,0.0031927402450190852,0.0,0
s2_sit,2,sit,190.0,4.4045431091087845,121,122.95081967213126,0.013746666232776011,18.622795457135265,95,57.7540155815115,77,9.875254992000196,122,18.622795457135265,95,18.622795457135265,95,18.622795457135265,95,9.875254992000196,122,9.875254992000196,122,0.986440089538605,1.0,0.9774001492310083,0.0033509906047990874,0.0,0.9761924370233771,1.0,0.9603207283722951,0.003164900836735167,0.0,0.9935527684197342,1.0,0.9892546140328903,0.003351297952768215,0.0,0.9935527684197342,1.0,0.9892546140328903,0.0033509906047990874,0.0,0
s2_sit,2,sit,250.0,2.892519086655279,121,122.44897959184867,0.013694245459898832,23.62202362203543,101,50.841751749229026,87,9.403709484353273,122,23.62202362203543,101,23.62202362203543,101,23.62202362203543,101,9.403709484353273,122,9.403709484353273,122,0.9876448461955007,1.0,0.9794080769925012,0.0035477375944220095,0.0,0.9771147157363921,1.0,0.9618578595606535,0.0029211290275488076,0.0,0.9924877388120028,1.0,0.9874795646866713,0.0035404627473306716,0.0,0.9924877388120028,1.0,0.9874795646866713,0.0035477375944220095,0.0,0
s2_sit,2,sit,310.0,7.605490007938771,116,117.64705882353151,0.013154009326048493,11.47532868012205,102,44.6147530585589,85,10.581389888186333,118,11.47532868012205,102,11.47532868012205,102,11.47532868012205,102,10.581389888186333,118,10.581389888186333,118,0.9882329894018903,1.0,0.9803883156698172,0.0035651176898324486,0.0,0.9774980477157686,1.0,0.9624967461929477,0.0032228173217661088,0.0,0.988882216991269,1.0,0.9814703616521151,0.0035427943935382494,0.0,0.988882216991269,1.0,0.9814703616521151,0.0035651176898324486,0.0,0
s2_sit,2,sit,370.0,5.042428676394473,116,117.1874999999999,0.013059772519351599,11.055415967851333,109,50.75966124666853,82,8.49552311770607,116,11.055415967851333,109,11.055415967851333,109,11.055415967851333,109,8.49552311770607,116,8.49552311770607,116,0.990582465383222,1.0,0.9843041089720368,0.003639912011027782,0.0,0.9794197523294222,1.0,0.9656995872157038,0.0032234650853564563,0.0,0.991490557544871,1.0,0.9858175959081183,0.003616393330589807,0.0,0.991490557544871,1.0,0.9858175959081183,0.003639912011027782,0.0,0
s2_sit,2,sit,430.0,4.596542736468092,118,119.04761904761453,0.0128827129673747,9.767949837949478,110,34.62176579359676,76,8.386833911008818,119,9.767949837949478,110,9.767949837949478,110,9.767949837949478,110,8.386833911008818,119,8.386833911008818,119,0.9930826130738143,1.0,0.9884710217896905,0.0037675477255590304,0.0,0.984712198680304,1.0,0.97452033113384,0.0032176012162533543,0.0,0.993674020205219,1.0,0.9894567003420316,0.0037448106492634086,0.0,0.993674020205219,1.0,0.9894567003420316,0.0037675477255590304,0.0,0
s3_sit,3,sit,10.0,39.75783840056758,71,72.8155339805827,0.01884299343248249,55.067180481637,72,118.85699023189224,64,44.007041690050684,72,55.067180481637,72,55.067180481637,72,55.067180481637,72,44.007041690050684,72,44.007041690050684,72,0.9766670539250881,1.0,0.9611117565418135,0.0094643165699867,0.0,0.965464293591965,1.0,0.9424404893199415,0.0008949582808594017,0.0,0.9780453953812134,1.0,0.9634089923020224,0.00951688212022432,0.0,0.9780453953812134,1.0,0.9634089923020224,0.0094643165699867,0.0,0
s3_sit,3,sit,70.0,35.27443428725398,71,71.42857142857234,0.01715844761827511,38.54496446637726,71,129.7614278937084,72,38.8750254743814,72,38.54496446637726,71,38.54496446637726,71,38.54496446637726,71,38.8750254743814,72,38.8750254743814,72,0.979438740837702,1.0,0.9657312347295033,0.009300601240855902,0.0,0.9649404645591827,1.0,0.9415674409319712,0.0009335806617337015,0.0,0.9797105691274277,1.0,0.9661842818790463,0.009332332662379293,0.0,0.9797105691274277,1.0,0.9661842818790463,0.009300601240855902,0.0,0
s3_sit,3,sit,130.0,35.898003658511506,73,74.25742574257231,0.016501392137037097,52.665084364416536,73,128.2018497749322,71,40.897466177332156,74,52.665084364416536,73,52.665084364416536,73,52.665084364416536,73,40.897466177332156,74,40.897466177332156,74,0.9809004247689569,1.0,0.9681673746149281,0.009054342542834978,0.0,0.9720162967415567,1.0,0.9533604945692611,0.0009372648746451182,0.0,0.9811742775918753,1.0,0.9686237959864589,0.009077669777050823,0.0,0.9811742775918753,1.0,0.9686237959864589,0.009054342542834978,0.0,0
s3_sit,3,sit,190.0,25.736519210114803,77,77.51937984496115,0.018229083207378014,52.496134675270675,78,74.11239477188367,69,29.86813122975548,77,52.496134675270675,78,52.496134675270675,78,52.496134675270675,78,29.86813122975548,77,29.86813122975548,77,0.9802335488871246,1.0,0.967055914811874,0.008812747860181281,0.0,0.9724942401731047,1.0,0.9541570669551745,0.0009302827252897735,0.0,0.9844441461902153,1.0,0.9740735769836921,0.008820750465792872,0.0,0.9844441461902153,1.0,0.9740735769836921,0.008812747860181281,0.0,0
s3_sit,3,sit,250.0,38.06665762232439,72,72.81553398058144,0.0174489649006892,43.397388554305124,73,133.48087075361346,71,39.87828704668466,73,43.397388554305124,73,43.397388554305124,73,43.397388554305124,73,39.87828704668466,73,39.87828704668466,73,0.9803283430408669,1.0,0.9672139050681117,0.008926356721906527,0.0,0.966498539746913,1.0,0.9441642329115216,0.0009137431601093083,0.0,0.9814384356656382,1.0,0.9690640594427303,0.00893220137171705,0.0,0.9814384356656382,1.0,0.9690640594427303,0.008926356721906527,0.0,0
s3_sit,3,sit,310.0,33.8339598939506,77,77.51937984496115,0.01846726277471176,65.71003134360903,74,101.67944569783685,63,41.19954608248248,78,65.71003134360903,74,65.71003134360903,74,65.71003134360903,74,41.19954608248248,78,41.19954608248248,78,0.9769630275119641,1.0,0.9616050458532734,0.008897800869596281,0.0,0.9719954408667772,1.0,0.953325734777962,0.0009300808589579964,0.0,0.9786270977737643,1.0,0.9643784962896071,0.008883350378867432,0.0,0.9786270977737643,1.0,0.9643784962896071,0.008897800869596281,0.0,0
s3_sit,3,sit,370.0,49.59435451742438,71,72.81553398058144,0.01721702180603226,52.695460850085546,70,96.63382036375897,64,53.87743291748205,73,52.695460850085546,70,52.695460850085546,70,52.695460850085546,70,53.87743291748205,73,53.87743291748205,73,0.9748460554015234,1.0,0.958076759002539,0.009252132294253661,0.0,0.9702983778400609,1.0,0.9504972964001015,0.0008676965400159512,0.0,0.9760138047962146,1.0,0.9600230079936911,0.009195199697150748,0.0,0.9760138047962146,1.0,0.9600230079936911,0.009252132294253661,0.0,0
s3_sit,3,sit,430.0,42.596182723437074,70,70.75471698113097,0.017033629495004716,47.68154162529464,69,95.53256297323595,69,47.13203338949606,71,47.68154162529464,69,47.68154162529464,69,47.68154162529464,69,47.13203338949606,71,47.13203338949606,71,0.9820326943922513,1.0,0.9700544906537522,0.008978562112141746,0.0,0.9735117998783975,1.0,0.9558529997973293,0.0008209522784258952,0.0,0.9806483600171905,1.0,0.9677472666953173,0.008945867755306956,0.0,0.9806483600171905,1.0,0.9677472666953173,0.008978562112141746,0.0,0
s3_walk,3,walk,10.0,18.07045036712126,86,88.23529411764709,0.5872685739874917,79.3469970820947,75,124.67099559583674,36,25.812382101763525,87,79.3469970820947,75,79.3469970820947,75,79.3469970820947,75,25.812382101763525,87,25.812382101763525,87,0.975205946317239,1.0,0.9586765771953983,0.006283226292391815,0.0,0.9339201335659701,1.0,0.8898668892766168,0.0019179955725671812,0.0,0.9831686354116347,1.0,0.9719477256860579,0.006338399708676362,0.0,0.9832729097777131,1.0,0.9721215162961885,0.006283226292391815,0.0,0
s3_walk,3,walk,70.0,14.575106687080865,84,84.62623413258156,0.5195229404501652,79.74597350246012,70,153.90473243752666,46,20.262976960311573,86,79.74597350246012,70,79.74597350246012,70,79.74597350246012,70,20.262976960311573,86,20.262976960311573,86,0.9756235089025012,1.0,0.9593725148375019,0.006809849146916472,0.0,0.9462594091267266,1.0,0.9104323485445442,0.0016791779700169938,0.0,0.9878639515128261,1.0,0.9797732525213769,0.006827510254100642,0.0,0.9878639515128261,1.0,0.9797732525213769,0.006809849146916472,0.0,0
s3_walk,3,walk,130.0,16.533744460414297,86,86.70520231213781,0.3981406607272359,93.72056499935043,80,155.44657076833946,34,23.110985419467156,86,93.72056499935043,80,93.72056499935043,80,93.72056499935043,80,23.110985419467156,86,23.110985419467156,86,0.9733660880357362,1.0,0.955610146726227,0.006363748087311377,0.0,0.9507156158657981,1.0,0.91785935977633,0.001290287014032599,0.0,0.985350539522933,1.0,0.9755842325382218,0.0063577015125709565,0.0,0.985350539522933,1.0,0.9755842325382218,0.006363748087311377,0.0,0
s3_walk,3,walk,190.0,16.231556137171424,83,84.7457627118646,0.4003306279423639,98.40392946083675,79,118.00423721205946,33,21.849049232883164,85,98.40392946083675,79,98.40392946083675,79,98.40392946083675,79,21.849049232883164,85,21.849049232883164,85,0.9707349058867617,1.0,0.9512248431446028,0.006358441707915675,0.0,0.9472338428363418,1.0,0.9120564047272364,0.0014009143118958313,0.0,0.9879868315136224,1.0,0.9799780525227041,0.006356316254570695,0.0,0.9879868315136224,1.0,0.9799780525227041,0.006358441707915675,0.0,0
s3_walk,3,walk,250.0,14.848440674900688,85,85.7142857142871,0.35330161666724225,92.95432388605667,80,139.81079651990188,35,21.07243742540523,85,92.95432388605667,80,92.95432388605667,80,92.95432388605667,80,21.07243742540523,85,21.07243742540523,85,0.9737433526869974,1.0,0.9562389211449958,0.005534832424037357,0.0,0.9437094797014385,1.0,0.9061824661690642,0.0013562821242920006,0.0,0.9906939638178447,1.0,0.9844899396964077,0.005578869910134168,0.0,0.9906939638178447,1.0,0.9844899396964077,0.005534832424037357,0.0,0
s3_walk,3,walk,310.0,19.527356376603787,86,87.08272859216345,0.42831891282207096,98.96256738580372,79,164.07315441594946,36,23.67414446773251,87,98.96256738580372,79,98.96256738580372,79,98.96256738580372,79,23.67414446773251,87,23.67414446773251,87,0.9673476540579738,1.0,0.9455794234299564,0.006443744552743781,0.0,0.9455560107014639,1.0,0.909260017835773,0.0013015509878797024,0.0,0.9813924947329788,1.0,0.9689874912216315,0.0064301172478464005,0.0,0.9813924947329788,1.0,0.9689874912216315,0.006443744552743781,0.0,0
s3_walk,3,walk,370.0,19.394402727146467,85,85.95988538681506,0.4380956384901079,112.82730166054668,81,139.0636892845122,32,23.161834733787696,86,112.82730166054668,81,112.82730166054668,81,112.82730166054668,81,23.161834733787696,86,23.161834733787696,86,0.9700875995940292,1.0,0.9501459993233821,0.006270471540892867,0.0,0.9329604569651614,1.0,0.8882674282752689,0.0013668721089190733,0.0,0.9842274835515457,1.0,0.9737124725859096,0.006231802464926474,0.0,0.9842274835515457,1.0,0.9737124725859096,0.006270471540892867,0.0,0
s3_walk,3,walk,430.0,19.421256014615725,82,83.68200836820264,0.5950870787787531,140.44690574495877,76,140.47155606924886,32,24.69323991623974,83,140.44690574495877,76,140.44690574495877,76,140.44690574495877,76,24.69323991623974,83,24.69323991623974,83,0.962538120709042,1.0,0.9375635345150701,0.006781599318688441,0.0,0.9446439795050228,1.0,0.9077399658417046,0.0016536498791720824,0.0,0.9844145192217899,1.0,0.9740241987029832,0.006736644816857325,0.0,0.9844145192217899,1.0,0.9740241987029832,0.006781599318688441,0.0,0
s3_run,3,run,10.0,18.762962998625927,83,85.47008547008484,1.3533057812449052,80.53699085855968,59,141.7509553171806,46,28.93699012665902,84,80.53699085855968,59,80.53699085855968,59,80.53699085855968,59,28.93699012665902,84,28.93699012665902,84,0.9756741816440804,1.0,0.9594569694068006,0.0064367612111733835,0.0,0.944237072061885,1.0,0.9070617867698083,0.0015937456431727329,0.0,0.9801024356269812,1.0,0.9668373927116354,0.006604517303149692,0.0,0.9801024356269812,1.0,0.9668373927116354,0.0064367612111733835,0.0,0
s3_run,3,run,70.0,16.649038296263285,85,86.70520231213959,1.4352236103922211,107.6358856096225,63,153.69686812920838,45,26.234238965856186,86,107.6358856096225,63,107.6358856096225,63,107.6358856096225,63,26.234238965856186,86,26.234238965856186,86,0.9723478813592481,1.0,0.9539131355987469,0.007490802330886214,0.0,0.9515194861387534,1.0,0.919199143564589,0.0015646377963069494,0.0,0.9867035130903552,1.0,0.9778391884839255,0.007593538387746205,0.0,0.9867035130903552,1.0,0.9778391884839255,0.007490802330886214,0.0,0
s3_run,3,run,130.0,21.304448316544885,84,85.95988538681856,1.457931985204031,86.62086701929624,64,173.819325435168,39,32.71984467099619,86,86.62086701929624,64,86.62086701929624,64,86.62086701929624,64,32.71984467099619,86,32.71984467099619,86,0.974188596959128,1.0,0.9569809949318798,0.008203726573844234,0.0,0.947853427894067,1.0,0.9130890464901117,0.0016631979504429719,0.0,0.9860640155725227,1.0,0.9767733592875376,0.008209712186124016,0.0,0.9860640155725227,1.0,0.9767733592875376,0.008203726573844234,0.0,0
s3_run,3,run,190.0,19.434354057881933,86,86.95652173913072,1.421111732828469,81.64965809277261,67,151.51283889782144,58,29.465832656106073,86,81.64965809277261,67,81.64965809277261,67,81.64965809277261,67,29.465832656106073,86,29.465832656106073,86,0.9745078366922277,1.0,0.9575130611537129,0.008642622339221126,0.0,0.9448319551786023,1.0,0.9080532586310038,0.001501241460528787,0.0,0.9867455160935901,1.0,0.9779091934893169,0.008589371243186202,0.0,0.9867455160935901,1.0,0.9779091934893169,0.008642622339221126,0.0,0
s3_run,3,run,250.0,23.715177388207767,84,85.71428571428362,1.3076804408396674,102.3067283548187,55,130.6844725763127,52,32.77373410307137,86,102.3067283548187,55,102.3067283548187,55,102.3067283548187,55,32.77373410307137,86,32.77373410307137,86,0.9721515682911385,1.0,0.9535859471518975,0.008496747704885215,0.0,0.9596037182254047,1.0,0.9326728637090078,0.001378758754692063,0.0,0.9824537219708996,1.0,0.9707562032848328,0.008467798569761134,0.0,0.9824537219708996,1.0,0.9707562032848328,0.008496747704885215,0.0,0
s3_run,3,run,310.0,25.882030794976018,84,85.47008547008569,1.5019582898631691,118.0353885119902,69,193.5235162747705,38,38.77591299468561,85,118.0353885119902,69,118.0353885119902,69,118.0353885119902,69,38.77591299468561,85,38.77591299468561,85,0.9681622059496958,1.0,0.9469370099161597,0.009923622099810011,0.0,0.950603825098949,1.0,0.9176730418315817,0.0013121599870284189,0.0,0.9851321975161227,1.0,0.9752203291935377,0.009840103793665907,0.0,0.9851321975161227,1.0,0.9752203291935377,0.009923622099810011,0.0,0
s3_run,3,run,370.0,24.55258170320983,83,84.2696629213496,1.4287436526702124,101.92352916329698,70,162.14406456734272,44,35.158847795587,84,101.92352916329698,70,101.92352916329698,70,101.92352916329698,70,35.158847795587,84,35.158847795587,84,0.9710606368620593,1.0,0.9517677281034324,0.010131436217692014,0.0,0.9500294231587271,1.0,0.916715705264545,0.0014284525414197777,0.0,0.9835421204201854,1.0,0.972570200700309,0.010158221029571354,0.0,0.9835421204201854,1.0,0.972570200700309,0.010131436217692014,0.0,0
s4_sit,4,sit,10.0,26.00910771653881,77,77.51937984496115,0.05501107331301971,51.01902759236585,69,68.17344825970774,43,28.184502784031842,72,51.01902759236585,69,51.01902759236585,69,51.01902759236585,69,28.184502784031842,72,28.184502784031842,72,0.9844268143037118,1.0,0.9740446905061864,0.0033631318715509227,0.0,0.9871386295782696,1.0,0.9785643826304493,0.000988282296928284,0.0,0.9888982129416513,1.0,0.9814970215694186,0.0033244932419319436,0.0,0.9885360308822714,1.0,0.9808933848037857,0.0033631318715509227,0.0,0
s4_sit,4,sit,70.0,28.742892097940512,79,79.78723404255369,0.02823958701519788,31.980107453341567,67,92.55628917943214,43,34.14313144188058,74,31.980107453341567,67,31.980107453341567,67,31.980107453341567,67,34.14313144188058,74,34.14313144188058,74,0.9805599300330586,1.0,0.9675998833884311,0.0030984753564436305,0.0,0.9784841924495504,1.0,0.9641403207492507,0.0006587800853747508,0.0,0.984694381918408,1.0,0.97449063653068,0.0030728638386588406,0.0,0.984694381918408,1.0,0.97449063653068,0.0030984753564436305,0.0,0
s4_sit,4,sit,130.0,21.166010488514345,86,87.2093023255829,0.02441032772800747,26.04483314082341,61,50.1361781913656,45,34.92849839314596,66,26.04483314082341,61,26.04483314082341,61,26.04483314082341,61,34.92849839314596,66,34.92849839314596,66,0.9821265633389038,1.0,0.9702109388981732,0.0014156053430165873,0.0,0.9736885565780283,1.0,0.9561475942967138,0.0007455221987107579,0.0,0.9794923967387212,1.0,0.9658206612312019,0.001412908344247803,0.0,0.9794923967387212,1.0,0.9658206612312019,0.0014156053430165873,0.0,0
s4_sit,4,sit,190.0,26.18880788689532,83,83.10249307479455,0.02154476899779801,35.02380143083653,61,38.02832952094854,53,39.7611918955202,64,35.02380143083653,61,35.02380143083653,61,35.02380143083653,61,39.7611918955202,64,39.7611918955202,64,0.9844585472020895,1.0,0.9740975786701491,0.0011029050463259808,0.0,0.9811653069101103,1.0,0.968608844850184,0.0006890079844031833,0.0,0.9837725931738931,1.0,0.9729543219564885,0.0011070496852029353,0.0,0.9837725931738931,1.0,0.9729543219564885,0.0011029050463259808,0.0,0
s4_sit,4,sit,250.0,25.354077942075634,83,84.03361344537831,0.021398355003979897,45.43441112511214,57,70.26050427899348,53,43.12047077665085,65,45.43441112511214,57,45.43441112511214,57,45.43441112511214,57,43.12047077665085,65,43.12047077665085,65,0.984588503651423,1.0,0.9743141727523718,0.0009591363673248469,0.0,0.9821668819109527,1.0,0.9702781365182545,0.0006699010118413104,0.0,0.9855535657707687,1.0,0.9759226096179479,0.0009637856074731555,0.0,0.9855535657707687,1.0,0.9759226096179479,0.0009591363673248469,0.0,0
s4_sit,4,sit,310.0,20.055345109713247,84,85.1063829787219,0.030273311865518047,72.01364393141553,58,98.5973050921199,43,55.34350211006213,63,72.01364393141553,58,72.01364393141553,58,72.01364393141553,58,55.34350211006213,63,55.34350211006213,63,0.9790331178170715,1.0,0.9650551963617859,0.0008247779693466518,0.0,0.973569090308313,1.0,0.9559484838471881,0.0006591326489049438,0.0,0.9816577630138157,1.0,0.9694296050230261,0.0008264981236808643,0.0,0.9816577630138157,1.0,0.9694296050230261,0.0008247779693466518,0.0,0
s4_sit,4,sit,370.0,26.91468000924598,81,81.74386920980511,0.030208376626923605,50.16638981097471,61,69.21260445456893,53,43.355362990061565,65,50.16638981097471,61,50.16638981097471,61,50.16638981097471,61,43.355362990061565,65,43.355362990061565,65,0.9788526714680676,1.0,0.9647544524467794,0.001486821661961319,0.0,0.9756503172071792,1.0,0.9594171953452986,0.0007617437445997166,0.0,0.9811545849085064,1.0,0.9685909748475108,0.001496291024778348,0.0,0.9811545849085064,1.0,0.9685909748475108,0.001486821661961319,0.0,0
s4_sit,4,sit,430.0,25.205496884026964,83,85.47008547008569,0.02547883789981886,43.44003956072136,55,62.91757059562275,59,57.64038335319647,59,43.44003956072136,55,43.44003956072136,55,43.44003956072136,55,57.64038335319647,59,57.64038335319647,59,0.9767365274719298,1.0,0.9612275457865498,0.0010412955044694012,0.0,0.9741956930906555,1.0,0.9569928218177592,0.0006943822942448453,0.0,0.97918782764297,1.0,0.9653130460716166,0.001043360348559607,0.0,0.97918782764297,1.0,0.9653130460716166,0.0010412955044694012,0.0,0
s4_run,4,run,10.0,17.657087168407028,89,90.90909090909138,1.0776763459816827,68.41292179736558,62,149.90595342345438,40,48.11982170976229,59,68.41292179736558,62,68.41292179736558,62,68.41292179736558,62,48.11982170976229,59,48.11982170976229,59,0.9707735527034838,1.0,0.9512892545058063,0.0014863753138685187,0.0,0.9470411916517658,1.0,0.9117353194196096,0.0008739533368545231,0.0,0.9744920340466727,1.0,0.9574867234111213,0.0014759656812145818,0.0,0.9742392913610436,1.0,0.9570654856017393,0.0014863753138685187,0.0,0
s4_run,4,run,70.0,20.85858240077899,88,88.75739644970389,1.0667903131054106,65.1258728182957,59,111.14555021832108,16,48.53626716970755,53,65.1258728182957,59,65.1258728182957,59,65.1258728182957,59,48.53626716970755,53,48.53626716970755,53,0.9785657119701849,1.0,0.9642761866169749,0.0011712836811046284,0.0,0.9479852974217327,1.0,0.913308829036221,0.0008474235446659637,0.0,0.984700466896412,1.0,0.9745007781606867,0.0011617412545624184,0.0,0.984700466896412,1.0,0.9745007781606867,0.0011712836811046284,0.0,0
s4_run,4,run,130.0,27.823020718957356,84,85.47008547008569,1.1568372659204633,98.97891390000902,64,161.1055554597668,21,65.0310099726624,63,98.97891390000902,64,98.97891390000902,64,98.97891390000902,64,65.0310099726624,63,65.0310099726624,63,0.9767120169354782,1.0,0.9611866948924636,0.0012305209377890154,0.0,0.9502068586522503,1.0,0.9170114310870838,0.0008078223123308573,0.0,0.9784627371616637,1.0,0.9641045619361059,0.0012364459423947522,0.0,0.9784627371616637,1.0,0.9641045619361059,0.0012305209377890154,0.0,0
s4_run,4,run,190.0,18.530266768638068,90,90.63444108761439,1.1362659826521695,93.42960402940231,56,145.0123147479945,15,72.39412331749789,67,93.42960402940231,56,93.42960402940231,56,93.42960402940231,56,72.39412331749789,67,72.39412331749789,67,0.9697314316114174,1.0,0.9495523860190291,0.001070353286353776,0.0,0.9495859966346875,1.0,0.9159766610578125,0.0008847421687875477,0.0,0.9767285495155686,1.0,0.9612142491926146,0.0010746536037775185,0.0,0.9767285495155686,1.0,0.9612142491926146,0.001070353286353776,0.0,0
s4_run,4,run,250.0,19.849986851933913,92,93.31259720062198,1.1001047978971912,116.66666666666667,46,132.59644860183164,23,56.42631098546645,57,116.66666666666667,46,116.66666666666667,46,116.66666666666667,46,56.42631098546645,57,56.42631098546645,57,0.9685744148201794,1.0,0.9476240247002989,0.0009443063412045827,0.0,0.9515305597876906,1.0,0.9192175996461511,0.001046400103095642,0.0,0.9784115972369288,1.0,0.9640193287282147,0.0009424926436787203,0.0,0.9784115972369288,1.0,0.9640193287282147,0.0009443063412045827,0.0,0
s4_run,4,run,310.0,23.523038352509346,88,88.49557522123929,1.1451215797129923,108.72138236359417,60,144.16870459505205,14,51.89511969613195,59,108.72138236359417,60,108.72138236359417,60,108.72138236359417,60,51.89511969613195,59,51.89511969613195,59,0.9653848329225402,1.0,0.9423080548709002,0.0009688179286704384,0.0,0.9539814474253094,1.0,0.9233024123755157,0.001064754354616663,0.0,0.9799103583536669,1.0,0.9665172639227781,0.0009734140430305842,0.0,0.9799103583536669,1.0,0.9665172639227781,0.0009688179286704384,0.0,0
s4_run,4,run,370.0,20.191307260518865,91,93.45794392523425,1.14637912709475,58.532042506647585,51,157.44280007074838,18,51.24536034141763,70,58.532042506647585,51,58.532042506647585,51,58.532042506647585,51,51.24536034141763,70,51.24536034141763,70,0.9696776108168261,1.0,0.9494626846947103,0.0013440951768075634,0.0,0.9552002169385283,1.0,0.9253336948975471,0.001053499026096204,0.0,0.9761242873220621,1.0,0.96020714553677,0.0013538270508987702,0.0,0.9761242873220621,1.0,0.96020714553677,0.0013440951768075634,0.0,0
s4_run,4,run,430.0,15.497607046760287,92,91.60305343511435,1.2522315792698042,92.6334301478272,64,118.50925889754119,10,45.78027231606791,73,92.6334301478272,64,92.6334301478272,64,92.6334301478272,64,45.78027231606791,73,45.78027231606791,73,0.9670999841414131,1.0,0.9451666402356884,0.0024130103227089144,0.0,0.9539537271147897,1.0,0.9232562118579828,0.0015682824645081232,0.0,0.9735352765087149,1.0,0.9558921275145247,0.0024096963131282605,0.0,0.9735352765087149,1.0,0.9558921275145247,0.0024130103227089144,0.0,0
s4_walk,4,walk,10.0,20.15119322112901,86,87.71929824561413,1.0926830575714368,102.10638709558911,36,100.17331919004691,50,180.97618890998052,43,102.10638709558911,36,102.10638709558911,36,102.10638709558911,36,110.91636049019209,42,110.91636049019209,42,0.9594690304443518,1.0,0.9324483840739197,0.0015684216029470028,0.0,0.977017075420753,1.0,0.961695125701255,0.003366177160131747,0.0,0.9360544758243866,1.0,0.8934241263739777,0.0015647156767323888,0.0,0.9703359212811168,1.0,0.9505598688018613,0.0015684216029470028,0.0,0
s4_walk,4,walk,70.0,19.996590618493943,89,89.28571428571279,1.1088086453328803,78.71120978268944,45,78.47605090750767,54,96.25270558967854,49,78.71120978268944,45,78.71120978268944,45,78.71120978268944,45,96.25270558967854,49,96.25270558967854,49,0.9667617237238402,1.0,0.944602872873067,0.0018490013201941612,0.0,0.9807247078870606,1.0,0.967874513145101,0.0029114545540437097,0.0,0.9677152323771463,1.0,0.9461920539619104,0.0018613597941765235,0.0,0.9699982876020268,1.0,0.9499971460033778,0.0018490013201941612,0.0,0
s4_walk,4,walk,130.0,21.711477040822043,86,88.23529411764802,1.3086456848047068,127.53213102761376,46,120.59267221764593,55,73.24824996168154,50,127.53213102761376,46,127.53213102761376,46,127.53213102761376,46,73.24824996168154,50,73.24824996168154,50,0.9687634797696478,1.0,0.9479391329494131,0.002440453253680584,0.0,0.9788019568630616,1.0,0.9646699281051027,0.0028452059254051036,0.0,0.9742870844967044,1.0,0.9571451408278406,0.0024448183552012483,0.0,0.9742870844967044,1.0,0.9571451408278406,0.002440453253680584,0.0,0
s4_walk,4,walk,190.0,17.494873198607685,86,87.08272859215985,1.4472836370017759,160.73936312286065,36,125.412526833616,54,98.73304556081659,57,160.73936312286065,36,160.73936312286065,36,160.73936312286065,36,98.73304556081659,57,98.73304556081659,57,0.963931422193431,1.0,0.9398857036557183,0.002688782755848695,0.0,0.9782896051781459,1.0,0.9638160086302432,0.003404082927373762,0.0,0.973710728832702,1.0,0.9561845480545034,0.0026932330048611147,0.0,0.973710728832702,1.0,0.9561845480545034,0.002688782755848695,0.0,0
s4_walk,4,walk,250.0,20.107943996456562,86,85.95988538682207,1.6088504138861883,146.935359937627,41,118.49600983926035,47,79.42006780286277,54,146.935359937627,41,146.935359937627,41,146.935359937627,41,79.42006780286277,54,79.42006780286277,54,0.9468120008061065,1.0,0.9113533346768441,0.003148157934484708,0.0,0.9718114726913586,1.0,0.9530191211522643,0.0038780729553255745,0.0,0.9700000360282737,1.0,0.9500000600471229,0.003147639443486145,0.0,0.9700000360282737,1.0,0.9500000600471229,0.003148157934484708,0.0,0
s4_walk,4,walk,310.0,22.301674956877104,86,87.97653958944804,1.6376572084869054,139.427400463467,36,63.63961030678928,51,75.301861666033,55,139.427400463467,36,139.427400463467,36,139.427400463467,36,75.301861666033,55,75.301861666033,55,0.9487148271841033,1.0,0.9145247119735054,0.003873753195925117,0.0,0.9750001634016845,1.0,0.9583336056694742,0.0036259958690578317,0.0,0.9740834348352625,1.0,0.9568057247254376,0.003873754327231124,0.0,0.9740834348352625,1.0,0.9568057247254376,0.003873753195925117,0.0,0
s4_walk,4,walk,370.0,19.671105229555234,85,86.20689655172087,1.9299424519754753,146.59467930317254,31,76.90783324743205,55,101.17932052529699,52,146.59467930317254,31,146.59467930317254,31,146.59467930317254,31,101.17932052529699,52,101.17932052529699,52,0.9541650896590652,1.0,0.9236084827651088,0.004970975304711062,0.0,0.985799606636395,1.0,0.9763326777273249,0.004811121813874464,0.0,0.9717572022314047,1.0,0.9529286703856745,0.004929712884656874,0.0,0.9717572022314047,1.0,0.9529286703856745,0.004970975304711062,0.0,0
s4_walk,4,walk,430.0,22.700271486956865,87,87.46355685131468,1.8048706979614533,170.87032119905044,31,99.23708984044222,51,76.04589879411154,48,170.87032119905044,31,170.87032119905044,31,170.87032119905044,31,76.04589879411154,48,76.04589879411154,48,0.9501463120521745,1.0,0.9169105200869574,0.003011405553764227,0.0,0.9792112095887386,1.0,0.9653520159812312,0.004735004731415674,0.0,0.9746285173737653,1.0,0.9577141956229422,0.003016848887131304,0.0,0.9746285173737653,1.0,0.9577141956229422,0.003011405553764227,0.0,0
s5_walk,5,walk,10.0,14.665151436881697,91,93.16770186335376,0.7684204989479163,115.9821186728879,55,160.78849827170657,35,37.81979744329265,90,115.9821186728879,55,115.9821186728879,55,115.9821186728879,55,37.81979744329265,90,37.81979744329265,90,0.937218600460607,1.0,0.8953643341010117,0.00397282771977534,0.0,0.9718731530047515,1.0,0.9531219216745859,0.004366280412100626,0.0,0.9855501585926781,1.0,0.9759169309877969,0.0039459774325016055,0.0,0.9856229453072709,1.0,0.9760382421787848,0.00397282771977534,0.0,0
s5_walk,5,walk,70.0,18.85971603415288,91,91.46341463414552,0.7480327897811817,106.41676701482146,54,241.8775762751932,22,53.23594588307729,92,106.41676701482146,54,106.41676701482146,54,106.41676701482146,54,53.23594588307729,92,53.23594588307729,92,0.9620105462661075,1.0,0.9366842437768459,0.003888850049441963,0.0,0.9645060108502937,1.0,0.9408433514171562,0.0038241433146961592,0.0,0.9782596830001685,1.0,0.9637661383336142,0.0038729511462754617,0.0,0.9782596830001685,1.0,0.9637661383336142,0.003888850049441963,0.0,0
s5_walk,5,walk,130.0,20.261508720533296,88,88.23529411764618,0.8992629535374683,145.48149320399781,38,175.46367145366588,25,47.14755101025991,84,145.48149320399781,38,145.48149320399781,38,145.48149320399781,38,47.14755101025991,84,47.14755101025991,84,0.963276123964435,1.0,0.938793539940725,0.003988567352076604,0.0,0.9662982475833445,1.0,0.9438304126389074,0.0035297156364056427,0.08333333333333333,0.9811755773063898,1.0,0.9686259621773163,0.003980702240780291,0.0,0.9811755773063898,1.0,0.9686259621773163,0.003988567352076604,0.0,0
s5_walk,5,walk,190.0,19.201501879244578,87,87.9765395894407,0.5237753098201967,142.7356626346587,50,119.36799382044565,40,49.33275717241596,87,142.7356626346587,50,142.7356626346587,50,142.7356626346587,50,49.33275717241596,87,49.33275717241596,87,0.9579240431740088,1.0,0.9298734052900146,0.0037885257914327163,0.0,0.9497709052472539,1.0,0.9162848420787565,0.002417950532816674,0.0,0.98048127945953,1.0,0.9674687990992166,0.0037882675334652343,0.0,0.98048127945953,1.0,0.9674687990992166,0.0037885257914327163,0.0,0
s5_walk,5,walk,250.0,15.023790657298383,92,92.59259259258909,0.4794743564614436,87.98989841011424,46,78.34729014037707,48,36.283377964069395,92,87.98989841011424,46,87.98989841011424,46,87.98989841011424,46,36.283377964069395,92,36.283377964069395,92,0.9664543951821094,1.0,0.9440906586368489,0.003918556621309097,0.0,0.9644962880052881,1.0,0.9408271466754801,0.002633808354250804,0.0,0.9848083049939491,1.0,0.9746805083232486,0.003910748487573619,0.0,0.9848083049939491,1.0,0.9746805083232486,0.003918556621309097,0.0,0
s5_walk,5,walk,310.0,18.21716686368415,90,91.46341463414552,0.5021533233799585,120.58799034163455,42,76.59416862050705,34,41.91441496452243,89,120.58799034163455,42,120.58799034163455,42,120.58799034163455,42,41.91441496452243,89,41.91441496452243,89,0.9689781551499994,1.0,0.948296925249999,0.0037262510886962724,0.0,0.972665268865817,1.0,0.9544421147763615,0.002691095383094975,0.0,0.9822844580144823,1.0,0.9704740966908039,0.003732786190384695,0.0,0.9822844580144823,1.0,0.9704740966908039,0.0037262510886962724,0.0,0
s5_walk,5,walk,370.0,18.76758434701303,91,92.02453987730247,0.5161555117164873,81.87149184221934,35,70.96066985779282,49,50.3409428429364,77,81.87149184221934,35,81.87149184221934,35,81.87149184221934,35,50.3409428429364,77,50.3409428429364,77,0.9615569563986648,1.0,0.9359282606644412,0.0035113409312180714,0.0,0.9739239575981528,1.0,0.9565399293302546,0.002745883679744336,0.0,0.9818328814984939,1.0,0.9697214691641566,0.0035357993720356233,0.0,0.9818328814984939,1.0,0.9697214691641566,0.0035113409312180714,0.0,0
s5_walk,5,walk,430.0,16.897388529904163,93,94.93670886075874,0.5205273784823956,129.16117332872201,47,103.02326486502102,30,48.705463987341524,73,129.16117332872201,47,129.16117332872201,47,129.16117332872201,47,48.705463987341524,73,48.705463987341524,73,0.9669531199141455,1.0,0.9449218665235757,0.0031498002172180763,0.0,0.9702418491874576,1.0,0.9504030819790961,0.002553240315672148,0.0,0.9803878486032533,1.0,0.9673130810054222,0.003179538749880281,0.0,0.9803878486032533,1.0,0.9673130810054222,0.0031498002172180763,0.0,0
s5_run,5,run,10.0,15.054479819554336,92,92.87925696594466,1.074572217745928,120.20004970070498,78,121.45395765386665,48,27.246858614303157,93,120.20004970070498,78,120.20004970070498,78,120.20004970070498,78,27.246858614303157,93,27.246858614303157,93,0.9575070012762912,1.0,0.9291783354604853,0.0031075461606959523,0.0,0.9498385164080713,1.0,0.9163975273467855,0.005290657992966523,0.0,0.9882242431453345,1.0,0.9803737385755577,0.003101236780405738,0.0,0.988212428897371,1.0,0.9803540481622852,0.0031075461606959523,0.0,0
s5_run,5,run,70.0,14.411415228522,91,92.59259259259315,1.3741066154840473,114.26346901296667,58,119.79780946042024,34,33.65957565043019,92,114.26346901296667,58,114.26346901296667,58,114.26346901296667,58,33.65957565043019,92,33.65957565043019,92,0.9659688255233848,1.0,0.943281375872308,0.003961882905685658,0.0,0.9605879072780064,1.0,0.9343131787966772,0.010807094772697888,0.0,0.9848374362173699,1.0,0.9747290603622831,0.003933987293929712,0.0,0.9848374362173699,1.0,0.9747290603622831,0.003961882905685658,0.0,0
s5_run,5,run,130.0,19.467640098095057,92,93.16770186335324,1.2175315928398236,144.09921350699085,49,59.430631832414505,26,34.97993004020988,90,144.09921350699085,49,144.09921350699085,49,144.09921350699085,49,34.97993004020988,90,34.97993004020988,90,0.9595394789567807,1.0,0.9325657982613013,0.004081468278346171,0.0,0.9516582426878029,1.0,0.9194304044796715,0.010640727204922219,0.0,0.9854442205967581,1.0,0.9757403676612635,0.004069972208770426,0.0,0.9854442205967581,1.0,0.9757403676612635,0.004081468278346171,0.0,0
s5_run,5,run,190.0,19.545957240423174,91,92.59259259259315,1.173998316862204,137.95545410411714,42,59.833101206606365,11,45.15485620573981,78,137.95545410411714,42,137.95545410411714,42,137.95545410411714,42,45.15485620573981,78,45.15485620573981,78,0.9583826467884873,1.0,0.9306377446474787,0.0029943655478911193,0.0,0.9495259343192568,1.0,0.9158765571987615,0.008537416167703343,0.0,0.9812463110789047,1.0,0.9687438517981746,0.0029962135604841723,0.0,0.9812463110789047,1.0,0.9687438517981746,0.0029943655478911193,0.0,0
s5_run,5,run,250.0,20.59998909130045,90,91.04704097116957,1.1167120874487064,123.487571552237,62,106.42966093750711,12,48.92260267638649,77,123.487571552237,62,123.487571552237,62,123.487571552237,62,48.92260267638649,77,48.92260267638649,77,0.9612811175209293,1.0,0.9354685292015488,0.0028911928615148056,0.0,0.9488769748594209,1.0,0.9147949580990348,0.007458499081598111,0.0,0.9787538704706351,1.0,0.9645897841177251,0.002896146787909525,0.0,0.9787538704706351,1.0,0.9645897841177251,0.0028911928615148056,0.0,0
s5_run,5,run,310.0,14.126920841894867,94,94.78672985781844,1.1774772315929696,106.26703593696998,42,80.20806277010642,13,48.67994291394828,77,106.26703593696998,42,106.26703593696998,42,106.26703593696998,42,48.67994291394828,77,48.67994291394828,77,0.9630313850590986,1.0,0.9383856417651643,0.0035786561275659486,0.0,0.950721425825501,1.0,0.9178690430425017,0.007814869192558756,0.0,0.9816305698514078,1.0,0.9693842830856798,0.003580474042601945,0.0,0.9816305698514078,1.0,0.9693842830856798,0.0035786561275659486,0.0,0
s5_run,5,run,370.0,15.390567410507714,93,94.33962264150585,1.4333145055476055,114.83079339232621,37,,8,60.113528956769485,67,114.83079339232621,37,114.83079339232621,37,114.83079339232621,37,60.113528956769485,67,60.113528956769485,67,0.9635143690769689,1.0,0.9391906151282814,0.004754753147121802,0.0,0.9691384502056054,1.0,0.948564083676009,0.010437098477193305,0.08333333333333333,0.9837072638996147,1.0,0.9728454398326912,0.004729933244254862,0.0,0.9837072638996147,1.0,0.9728454398326912,0.004754753147121802,0.0,0
s5_run,5,run,430.0,13.384987662937718,96,96.15384615385126,1.6516514624011378,161.76114078067906,28,,1,67.21742198404978,34,161.76114078067906,28,161.76114078067906,28,161.76114078067906,28,67.21742198404978,34,67.21742198404978,34,0.9574592663430047,1.0,0.9290987772383412,0.0046793837229414815,0.0,0.9691384502056054,1.0,0.948564083676009,0.01568745417947543,0.08333333333333333,0.9803855388247334,1.0,0.9673092313745558,0.004701641728396126,0.0,0.9803855388247334,1.0,0.9673092313745558,0.0046793837229414815,0.0,0
s5_run,5,run,490.0,12.786506045132182,96,98.68421052631513,1.5678038170451896,126.53853168106544,26,,4,81.37874415349502,41,126.53853168106544,26,126.53853168106544,26,126.53853168106544,26,81.37874415349502,41,81.37874415349502,41,0.9560480687652573,1.0,0.9267467812754286,0.0056400727138852524,0.0,0.96421077205085,1.0,0.9403512867514168,0.014342816256052014,0.11666666666666667,0.976779966708843,1.0,0.9612999445147384,0.0056317681169923105,0.0,0.976779966708843,1.0,0.9612999445147384,0.0056400727138852524,0.0,0
s5_sit,5,sit,10.0,25.909586385479372,76,76.43312101910809,0.04808958874390861,52.753149070383515,77,41.73597838666169,75,27.736858750286295,76,52.753149070383515,77,52.753149070383515,77,52.753149070383515,77,27.736858750286295,76,27.736858750286295,76,0.9796790672972397,1.0,0.9661317788287329,0.0034694210699547407,0.0,0.9829964461637649,1.0,0.9716607436062747,0.0012638546627725005,0.0,0.9829982797720354,1.0,0.9716637996200589,0.003467975792567221,0.0,0.9829982797720354,1.0,0.9716637996200589,0.0034694210699547407,0.0,0
s5_sit,5,sit,70.0,24.043294283437127,76,76.4331210191093,0.06101352177236424,89.50977600240098,76,68.2260545579762,74,28.35396565598986,77,89.50977600240098,76,89.50977600240098,76,89.50977600240098,76,28.35396565598986,77,28.35396565598986,77,0.980213148130388,1.0,0.9670219135506467,0.0034757190793678577,0.0,0.9811858546609638,1.0,0.9686430911016064,0.001310140488643583,0.0,0.9837581641507875,1.0,0.9729302735846459,0.0034686400158508183,0.0,0.9837581641507875,1.0,0.9729302735846459,0.0034757190793678577,0.0,0
s5_sit,5,sit,130.0,28.63758214499578,73,73.89162561576246,0.05155654903898816,63.89391545704827,75,61.8411216289317,75,31.032462013674277,74,63.89391545704827,75,63.89391545704827,75,63.89391545704827,75,31.032462013674277,74,31.032462013674277,74,0.9757424438188129,1.0,0.9595707396980215,0.003866198030015449,0.0,0.9791236565845107,1.0,0.9652060943075179,0.0014062104842869363,0.0,0.9851068594004143,1.0,0.9751780990006904,0.0038562962502880927,0.0,0.9851068594004143,1.0,0.9751780990006904,0.003866198030015449,0.0,0
s5_sit,5,sit,190.0,30.855350128930844,77,77.72020725388401,0.08057071013635403,57.02630971753301,76,63.885313909640715,76,32.32447671458573,79,57.02630971753301,76,57.02630971753301,76,57.02630971753301,76,32.32447671458573,79,32.32447671458573,79,0.9740877376856151,1.0,0.9568128961426918,0.003350156963222711,0.0,0.9746766532052948,1.0,0.9577944220088247,0.0013023908214968441,0.0,0.9765279155083164,1.0,0.9608798591805273,0.003358348616817116,0.0,0.9765279155083164,1.0,0.9608798591805273,0.003350156963222711,0.0,0
s5_sit,5,sit,250.0,22.96392327438652,80,81.4111261872446,0.07118573764441148,63.39698795835478,74,42.090875389385474,68,27.431733448690405,81,63.39698795835478,74,63.39698795835478,74,63.39698795835478,74,27.431733448690405,81,27.431733448690405,81,0.9796468778705945,1.0,0.9660781297843241,0.002513254899148003,0.0,0.9819406020173815,1.0,0.9699010033623026,0.001045449305094306,0.0,0.9833862806850739,1.0,0.9723104678084566,0.0025321272638715335,0.0,0.9833862806850739,1.0,0.9723104678084566,0.002513254899148003,0.0,0
s5_sit,5,sit,310.0,26.826038910667467,78,78.53403141361154,0.05459868189845429,64.09368143584827,76,50.16854708762371,78,28.51292712064149,78,64.09368143584827,76,64.09368143584827,76,64.09368143584827,76,28.51292712064149,78,28.51292712064149,78,0.9780499600341828,1.0,0.9634166000569713,0.0028836957586909732,0.0,0.980139298019948,1.0,0.9668988300332467,0.0011444460040760753,0.0,0.9828871890290937,1.0,0.9714786483818227,0.002890999070605002,0.0,0.9828871890290937,1.0,0.9714786483818227,0.0028836957586909732,0.0,0
s5_sit,5,sit,370.0,22.32888146254843,77,79.15567282322094,0.05452257973038602,40.88758823646697,79,39.90373030567058,79,25.4195563720897,79,40.88758823646697,79,40.88758823646697,79,40.88758823646697,79,25.4195563720897,79,25.4195563720897,79,0.9830240408729689,1.0,0.9717067347882815,0.0036479939120563874,0.0,0.9833930310479686,1.0,0.9723217184132811,0.001314169789574788,0.0,0.9852998360166536,1.0,0.9754997266944228,0.0036446505033371933,0.0,0.9852998360166536,1.0,0.9754997266944228,0.0036479939120563874,0.0,0
s5_sit,5,sit,430.0,27.296886269319177,76,76.23888182973256,0.06011741084064612,59.45352993912323,73,78.25806235988931,75,28.189832682487964,76,59.45352993912323,73,59.45352993912323,73,59.45352993912323,73,28.189832682487964,76,28.189832682487964,76,0.9782266500355685,1.0,0.9637110833926142,0.003719256568027479,0.0,0.9760057810070892,1.0,0.9600096350118155,0.0013586988466195772,0.0,0.9797210679908517,1.0,0.9662017799847529,0.0037180715253830685,0.0,0.9797210679908517,1.0,0.9662017799847529,0.003719256568027479,0.0,0
s6_run,6,run,10.0,9.205827108263849,92,93.31259720062225,3.810785902183246,131.8701770293177,40,179.59677057230178,41,51.07592387808565,81,131.8701770293177,40,131.8701770293177,40,131.8701770293177,40,51.07592387808565,81,51.07592387808565,81,0.9365241142261715,1.0,0.8942068570436192,0.0048784000702436145,0.0,0.9594422489072583,1.0,0.9324037481787637,0.0050156204601093934,0.0,0.9790970390314324,1.0,0.965161731719054,0.004769529444079313,0.0,0.9792295159812479,1.0,0.965382526635413,0.0048784000702436145,0.0,0
s6_run,6,run,70.0,11.86250821384634,90,91.60305343511435,3.5893753205194994,180.8538307808494,38,133.1164903383499,36,49.52152009360125,85,180.8538307808494,38,180.8538307808494,38,180.8538307808494,38,49.52152009360125,85,49.52152009360125,85,0.9363268080394742,1.0,0.8938780133991236,0.004640315406710362,0.0,0.9608852798326296,1.0,0.9348087997210494,0.005734947253299285,0.0,0.9874836254657242,1.0,0.979139375776207,0.004564252407247307,0.0,0.9874836254657242,1.0,0.979139375776207,0.004640315406710362,0.0,0
s6_run,6,run,130.0,15.084609857247143,89,90.09009009009053,3.9811223793985433,169.29264603047588,41,178.42809578609996,42,53.862833375873464,84,169.29264603047588,41,169.29264603047588,41,169.29264603047588,41,53.862833375873464,84,53.862833375873464,84,0.94528552124858,1.0,0.9088092020809667,0.004333183800792366,0.0,0.9649058823909846,1.0,0.9415098039849744,0.00549530303271763,0.0,0.9841179441545084,1.0,0.9735299069241807,0.004301803874182315,0.0,0.9841179441545084,1.0,0.9735299069241807,0.004333183800792366,0.0,0
s6_run,6,run,190.0,20.720360357225307,88,88.49557522123929,3.2287325537382,199.51292039716478,38,210.4330090124914,40,42.36957307893916,84,199.51292039716478,38,199.51292039716478,38,199.51292039716478,38,42.36957307893916,84,42.36957307893916,84,0.9421493167828803,1.0,0.9035821946381339,0.004111823274206041,0.0,0.9563673102041668,1.0,0.9272788503402779,0.005733856605310438,0.0,0.9870115327189012,1.0,0.978352554531502,0.004114444142041141,0.0,0.9870115327189012,1.0,0.978352554531502,0.004111823274206041,0.0,0
s6_run,6,run,250.0,22.382509782995943,87,88.75739644969829,3.015932697722942,139.49910393977447,41,178.33333333333334,37,39.896926020463695,86,139.49910393977447,41,139.49910393977447,41,139.49910393977447,41,39.896926020463695,86,39.896926020463695,86,0.9390955704905166,1.0,0.8984926174841943,0.0038805966393449702,0.0,0.9574388187338155,1.0,0.9290646978896926,0.0057864909877495836,0.0,0.9865742775126299,1.0,0.9776237958543833,0.0038934500221982924,0.0,0.9865742775126299,1.0,0.9776237958543833,0.0038805966393449702,0.0,0
s6_run,6,run,310.0,22.230200587977055,89,90.90909090908747,2.8984357137842056,138.12520200373075,57,174.94605582573044,50,34.673804626442816,89,138.12520200373075,57,138.12520200373075,57,138.12520200373075,57,34.673804626442816,89,34.673804626442816,89,0.9580370285549001,1.0,0.9300617142581669,0.003948166165856314,0.0,0.9635095712146862,1.0,0.9391826186911436,0.005039172707639761,0.0,0.9889487265630146,1.0,0.9815812109383577,0.003993985866813439,0.0,0.9889487265630146,1.0,0.9815812109383577,0.003948166165856314,0.0,0
s6_run,6,run,370.0,24.339552031681638,88,89.55223880596802,3.334515595383506,166.35958104083343,50,158.35463515852788,43,37.67678635293962,88,166.35958104083343,50,166.35958104083343,50,166.35958104083343,50,37.67678635293962,88,37.67678635293962,88,0.9487612462846574,1.0,0.9146020771410956,0.0039376351889348245,0.0,0.9618784300470702,1.0,0.9364640500784503,0.005469573847525641,0.0,0.9881750437812833,1.0,0.9802917396354722,0.003990470949453061,0.0,0.9881750437812833,1.0,0.9802917396354722,0.0039376351889348245,0.0,0
s6_run,6,run,430.0,27.33024933540687,88,89.55223880597183,2.9870510931304874,153.18289721767243,41,133.87776444934195,44,36.36580688108487,90,153.18289721767243,41,153.18289721767243,41,153.18289721767243,41,36.36580688108487,90,36.36580688108487,90,0.9449928967777199,1.0,0.9083214946295333,0.0047318904452966085,0.0,0.9679383569237583,1.0,0.9465639282062639,0.005553257408234843,0.0,0.9893905623985111,1.0,0.9823176039975184,0.004797463511801087,0.0,0.9893905623985111,1.0,0.9823176039975184,0.0047318904452966085,0.0,0
s6_sit,6,sit,10.0,45.58034189831802,75,78.53403141361227,0.013363249296734896,88.175960442742,53,63.50400476103578,59,48.895699950856724,77,88.175960442742,53,88.175960442742,53,88.175960442742,53,48.895699950856724,77,48.895699950856724,77,0.9669342509528407,1.0,0.9448904182547344,0.0023357966013980514,0.0,0.9717979201628312,1.0,0.9529965336047186,0.002823439834511947,0.0,0.9747033808985631,1.0,0.9578389681642718,0.0023638646538088675,0.0,0.9751094174611645,1.0,0.9585156957686076,0.0023357966013980514,0.0,0
s6_sit,6,sit,70.0,39.64778261979677,76,76.43312101910861,0.01345244437666493,83.24967552234827,60,82.02622682284279,54,42.63019274332844,76,83.24967552234827,60,83.24967552234827,60,83.24967552234827,60,42.63019274332844,76,42.63019274332844,76,0.9739693641614731,1.0,0.9566156069357884,0.002326430531099253,0.0,0.9751438632808824,1.0,0.9585731054681375,0.002737999764817833,0.0,0.9753815510251551,1.0,0.9589692517085919,0.00234625546284497,0.0,0.9753815510251551,1.0,0.9589692517085919,0.002326430531099253,0.0,0
s6_sit,6,sit,130.0,37.12393657287209,76,78.22685788787525,0.013473389032060194,87.05170877128145,51,83.43131494664033,52,42.083876147272214,77,87.05170877128145,51,87.05170877128145,51,87.05170877128145,51,42.083876147272214,77,42.083876147272214,77,0.972223293151003,1.0,0.9537054885850049,0.002198581635995545,0.0,0.9695904458674746,1.0,0.9493174097791243,0.002678222263646706,0.0,0.9787336894841255,1.0,0.9645561491402093,0.002203232490551405,0.0,0.9787336894841255,1.0,0.9645561491402093,0.002198581635995545,0.0,0
s6_sit,6,sit,190.0,30.562722391828327,76,77.82101167315167,0.014881728025332273,76.90743851124321,62,71.54752000627009,64,33.594217189442425,78,76.90743851124321,62,76.90743851124321,62,76.90743851124321,62,33.594217189442425,78,33.594217189442425,78,0.9753607911175468,1.0,0.9589346518625781,0.002254215227268507,0.0,0.9738680319075056,1.0,0.9564467198458426,0.0029238448565096185,0.0,0.9791849973193492,1.0,0.9653083288655819,0.0022580445591896185,0.0,0.9791849973193492,1.0,0.9653083288655819,0.002254215227268507,0.0,0
s6_sit,6,sit,250.0,34.85232001641611,77,77.92207792207401,0.01366150945109357,86.8654939264592,58,71.63620615126148,64,36.83941988065036,78,86.8654939264592,58,86.8654939264592,58,86.8654939264592,58,36.83941988065036,78,36.83941988065036,78,0.9754946659208458,1.0,0.9591577765347429,0.0022642661332862076,0.0,0.9781657775383583,1.0,0.9636096292305972,0.0030900261883037043,0.0,0.9853476929336158,1.0,0.9755794882226929,0.002259775413654539,0.0,0.9853476929336158,1.0,0.9755794882226929,0.0022642661332862076,0.0,0
s6_sit,6,sit,310.0,33.87049639901411,77,77.12082262210599,0.013893207430184774,94.03795645855965,52,67.16185141666574,57,37.5394529304276,77,94.03795645855965,52,94.03795645855965,52,94.03795645855965,52,37.5394529304276,77,37.5394529304276,77,0.9766670098717025,1.0,0.9611116831195042,0.0022972935996348294,0.0,0.9807251317242951,1.0,0.9678752195404916,0.002983991112091927,0.0,0.984175755851562,1.0,0.9736262597526035,0.0022887741550941254,0.0,0.984175755851562,1.0,0.9736262597526035,0.0022972935996348294,0.0,0
s6_sit,6,sit,370.0,30.897112793065627,77,78.74015748031492,0.013588509179078674,83.36100169607839,54,71.66096648557748,52,36.742346141747674,79,83.36100169607839,54,83.36100169607839,54,83.36100169607839,54,36.742346141747674,79,36.742346141747674,79,0.9736089307020961,1.0,0.9560148845034934,0.0025159070416511686,0.0,0.9770482560943996,1.0,0.961747093490666,0.0026732783122892035,0.0,0.983176008450359,1.0,0.9719600140839317,0.0025085529470458227,0.0,0.983176008450359,1.0,0.9719600140839317,0.0025159070416511686,0.0,0
s6_sit,6,sit,430.0,31.667682347515942,77,77.92207792207977,0.01399878995432635,93.5983746531152,62,60.93215302881782,56,34.865232188878586,78,93.5983746531152,62,93.5983746531152,62,93.5983746531152,62,34.865232188878586,78,34.865232188878586,78,0.9743170936969661,1.0,0.9571951561616102,0.0027285642345718283,0.0,0.9764890569044729,1.0,0.9608150948407881,0.002718490960442385,0.0,0.9798118043993372,1.0,0.9663530073322288,0.002723894684295494,0.0,0.9798118043993372,1.0,0.9663530073322288,0.0027285642345718283,0.0,0
s6_walk,6,walk,10.0,24.19264248934522,82,83.79888268156411,0.5862649524284369,141.59802258506295,15,172.30463977760115,19,63.00896658516048,78,141.59802258506295,15,141.59802258506295,15,141.59802258506295,15,63.00896658516048,78,63.00896658516048,78,0.9558696527214205,1.0,0.9264494212023676,0.005012829040030286,0.0,0.9367592280035372,1.0,0.8945987133392286,0.002388134368142593,0.0,0.9821489174608646,1.0,0.9702481957681076,0.0049602559262709196,0.0,0.9820953315013966,1.0,0.9701588858356611,0.005012829040030286,0.0,0
s6_walk,6,walk,70.0,25.092421756971422,82,83.44923504867859,0.7339405699722393,133.0178559442303,17,183.81376444651798,25,50.10757658048562,66,133.0178559442303,17,133.0178559442303,17,133.0178559442303,17,50.10757658048562,66,50.10757658048562,66,0.9460200431109592,1.0,0.9100334051849319,0.006060826275296529,0.0,0.9116513663781287,1.0,0.8527522772968812,0.002645149736700863,0.0,0.9826615144149974,1.0,0.9711025240249958,0.006016377305399558,0.0,0.9826615144149974,1.0,0.9711025240249958,0.006060826275296529,0.0,0
s6_walk,6,walk,130.0,22.08851373506777,83,84.03361344537831,0.4729084444174076,102.68614533832908,10,259.01635794715844,20,57.77110004145671,65,102.68614533832908,10,102.68614533832908,10,102.68614533832908,10,57.77110004145671,65,57.77110004145671,65,0.9396083366457312,1.0,0.8993472277428852,0.004883692424354659,0.0,0.9158660852723168,1.0,0.8597768087871946,0.0019113094382158372,0.0,0.9820843253300207,1.0,0.9701405422167011,0.004866605903434101,0.0,0.9820843253300207,1.0,0.9701405422167011,0.004883692424354659,0.0,0
s6_walk,6,walk,190.0,18.473919840834295,85,85.22727272727523,0.6913466540692438,117.33143937865361,13,205.40521986509032,24,90.85244447270897,49,117.33143937865361,13,117.33143937865361,13,117.33143937865361,13,90.85244447270897,49,90.85244447270897,49,0.9392808872729013,1.0,0.8988014787881687,0.004844861410122973,0.0,0.9530413280584205,1.0,0.9217355467640342,0.0025656852619696576,0.0,0.9804670346712532,1.0,0.967445057785422,0.004856745290127669,0.0,0.9804670346712532,1.0,0.967445057785422,0.004844861410122973,0.0,0
s6_walk,6,walk,250.0,23.054417642599283,82,84.03361344537831,0.581275897481265,106.37569963898808,20,214.17345837024314,38,73.2913475222118,75,106.37569963898808,20,106.37569963898808,20,106.37569963898808,20,73.2913475222118,75,73.2913475222118,75,0.9441931127899346,1.0,0.9069885213165576,0.00409884773670059,0.0,0.9539235610180967,1.0,0.9232059350301611,0.002278800483097265,0.0,0.9692756758301645,1.0,0.9487927930502741,0.004105171818229347,0.0,0.9692756758301645,1.0,0.9487927930502741,0.00409884773670059,0.0,0
s6_walk,6,walk,310.0,22.755907481383723,84,84.74576271186119,0.6932560721468933,127.57350822173073,21,161.1630522538113,35,77.77427086962838,44,127.57350822173073,21,127.57350822173073,21,127.57350822173073,21,77.77427086962838,44,77.77427086962838,44,0.9450579426070269,1.0,0.9084299043450448,0.004865538261879895,0.0,0.9677913881111044,1.0,0.946318980185174,0.00242272131113229,0.0,0.9786945614515264,1.0,0.9644909357525441,0.004876175262394173,0.0,0.9786945614515264,1.0,0.9644909357525441,0.004865538261879895,0.0,0
s6_walk,6,walk,370.0,18.19994767129578,85,86.45533141210166,0.6555962841899793,142.59499757471625,22,227.83566645521265,34,89.36137054373408,56,142.59499757471625,22,142.59499757471625,22,142.59499757471625,22,89.36137054373408,56,89.36137054373408,56,0.9560924136208335,1.0,0.9268206893680558,0.004978814617915078,0.0,0.9647468504714372,1.0,0.9412447507857287,0.0022993318191976706,0.0,0.9779465531072281,1.0,0.9632442551787136,0.004979151276507865,0.0,0.9779465531072281,1.0,0.9632442551787136,0.004978814617915078,0.0,0
s6_walk,6,walk,430.0,21.04003153109119,83,83.79888268156328,0.7088063162110023,129.80754985747168,17,152.81174225637432,36,75.86014701252499,43,129.80754985747168,17,129.80754985747168,17,129.80754985747168,17,75.86014701252499,43,75.86014701252499,43,0.952926919523845,1.0,0.9215448658730749,0.004958854850673709,0.0,0.9640498289335258,1.0,0.9400830482225428,0.0025666696591516614,0.0,0.9766971387786706,1.0,0.9611618979644511,0.00497770412891466,0.0,0.9766971387786706,1.0,0.9611618979644511,0.004958854850673709,0.0,0
s7_walk,7,walk,10.0,25.57994005726615,85,85.95988538681942,0.8889534533918223,197.93938466106235,16,209.5958844600931,24,155.98432969728438,46,197.93938466106235,16,197.93938466106235,16,197.93938466106235,16,155.98432969728438,46,155.98432969728438,46,0.9366079455250257,1.0,0.8943465758750427,0.004769648937180212,0.0,0.9625003122066156,1.0,0.9375005203443594,0.004693489531274315,0.0,0.9573857097215628,1.0,0.9289761828692713,0.004781328002953639,0.0,0.9527912525751796,1.0,0.9213187542919659,0.004769648937180212,0.0,0
s7_walk,7,walk,70.0,34.738808415467815,80,81.96721311475417,0.7473410213925252,285.46953802964185,15,181.1629101113139,16,116.07468859890744,46,285.46953802964185,15,285.46953802964185,15,285.46953802964185,15,116.07468859890744,46,116.07468859890744,46,0.9423223556758384,1.0,0.9038705927930641,0.003902843105790807,0.0,0.9624097920242497,1.0,0.9373496533737495,0.0037137376152035963,0.0,0.963227223401216,1.0,0.9387120390020267,0.003887072606119173,0.0,0.963227223401216,1.0,0.9387120390020267,0.003902843105790807,0.0,0
s7_walk,7,walk,130.0,46.06545315120523,78,78.63695937090525,0.634283997610524,201.47283774202936,24,197.76694543295739,18,79.74535744416916,60,201.47283774202936,24,201.47283774202936,24,201.47283774202936,24,79.74535744416916,60,79.74535744416916,60,0.9421040206412747,1.0,0.9035067010687912,0.003990643704031231,0.0,0.9643604553818413,1.0,0.9406007589697356,0.0034672183804214615,0.0,0.9730524912933455,1.0,0.9550874854889092,0.004012386762377022,0.0,0.9730524912933455,1.0,0.9550874854889092,0.003990643704031231,0.0,0
s7_walk,7,walk,190.0,48.96385870680057,75,75.94936708860835,0.6086307998050888,131.18450746944168,33,298.8101403901815,17,77.80555059700885,55,131.18450746944168,33,131.18450746944168,33,131.18450746944168,33,77.80555059700885,55,77.80555059700885,55,0.927062348774818,1.0,0.8784372479580299,0.0029849252162786593,0.0,0.9605446752269045,1.0,0.934241125378174,0.002751345874640221,0.0,0.9776626451524164,1.0,0.9627710752540273,0.0029806264331155353,0.0,0.9776626451524164,1.0,0.9627710752540273,0.0029849252162786593,0.0,0
s7_walk,7,walk,250.0,51.232481135397336,74,75.56675062972187,0.5764628652114893,158.1375983123558,41,102.95630140987001,10,88.88194417315589,57,158.1375983123558,41,158.1375983123558,41,158.1375983123558,41,88.88194417315589,57,88.88194417315589,57,0.9571103868837755,1.0,0.9285173114729591,0.002446691489282226,0.0,0.9391636604289699,1.0,0.89860610071495,0.002784954387550229,0.0,0.9794203798987222,1.0,0.965700633164537,0.0024303468510777403,0.0,0.9794203798987222,1.0,0.965700633164537,0.002446691489282226,0.0,0
s7_walk,7,walk,310.0,46.90766213661642,74,75.09386733416976,0.6530999365817812,154.1976753291796,40,166.89983689493394,10,126.22954608602831,60,154.1976753291796,40,154.1976753291796,40,154.1976753291796,40,126.22954608602831,60,126.22954608602831,60,0.9538605530628399,1.0,0.9231009217713999,0.002840606780364493,0.0,0.9277246734479199,1.0,0.8795411224131998,0.0029576701048913134,0.0,0.965898508973362,1.0,0.94316418162227,0.0027912330101060555,0.0,0.965898508973362,1.0,0.94316418162227,0.002840606780364493,0.0,0
s7_walk,7,walk,370.0,47.58775677203128,75,75.56675062972457,0.582469735314982,210.46956050088548,40,216.30225765503852,16,115.56313733054074,63,210.46956050088548,40,210.46956050088548,40,210.46956050088548,40,115.56313733054074,63,115.56313733054074,63,0.9577481032811118,1.0,0.9295801721351863,0.002921768523253373,0.0,0.9213344078571643,1.0,0.8688906797619403,0.0025727208445748013,0.0,0.968950763415565,1.0,0.9482512723592749,0.0029364281697737233,0.0,0.968950763415565,1.0,0.9482512723592749,0.002921768523253373,0.0,0
s7_walk,7,walk,430.0,42.845373465485345,74,73.89162561576505,0.6675508859085587,245.57720428677032,50,222.9859351455317,23,63.94442031083626,64,245.57720428677032,50,245.57720428677032,50,245.57720428677032,50,63.94442031083626,64,63.94442031083626,64,0.9561764519050094,1.0,0.9269607531750157,0.003251316794103826,0.0,0.9275640457564471,1.0,0.8792734095940786,0.002884202412045795,0.0,0.9763390500072049,1.0,0.9605650833453414,0.0032575927460356795,0.0,0.9763390500072049,1.0,0.9605650833453414,0.003251316794103826,0.0,0
s7_run,7,run,10.0,25.366953954725933,86,87.20930232558109,1.8102413863027425,77.7266271713148,71,123.40562129992723,39,35.91009445435824,87,77.7266271713148,71,77.7266271713148,71,77.7266271713148,71,35.91009445435824,87,35.91009445435824,87,0.9732699417184857,1.0,0.9554499028641428,0.005580032809182034,0.0,0.9586834035101905,1.0,0.9311390058503176,0.0014222010503118568,0.0,0.9866976542692911,1.0,0.9778294237821518,0.005557685210232853,0.0,0.9868584273434118,1.0,0.9780973789056862,0.005580032809182034,0.0,0
s7_run,7,run,70.0,31.552511399407067,83,84.26966292134793,2.005948034998467,117.41586982382955,75,189.07040764651418,22,36.94672165380652,84,117.41586982382955,75,117.41586982382955,75,117.41586982382955,75,36.94672165380652,84,36.94672165380652,84,0.9713964462833355,1.0,0.9523274104722259,0.004202027215747358,0.0,0.9564209513266713,1.0,0.9273682522111187,0.0014645749325530373,0.0,0.9856505587569144,1.0,0.9760842645948575,0.00420881903190756,0.0,0.9856505587569144,1.0,0.9760842645948575,0.004202027215747358,0.0,0
s7_run,7,run,130.0,38.89023013560118,81,82.19178082191895,1.8971501153733916,100.15429273346788,69,100.80445655594033,14,42.79310692155922,81,100.15429273346788,69,100.15429273346788,69,100.15429273346788,69,42.79310692155922,81,42.79310692155922,81,0.9708389356303441,1.0,0.9513982260505733,0.004637408912309276,0.0,0.9512336993643579,1.0,0.9187228322739297,0.001585918833111343,0.0,0.9843984480901007,1.0,0.9739974134835012,0.004638726832584976,0.0,0.9843984480901007,1.0,0.9739974134835012,0.004637408912309276,0.0,0
s7_run,7,run,190.0,32.4769148781053,81,82.87292817679678,1.7464039028348355,90.12232741282864,60,75.60864148142504,13,41.26062317016363,83,90.12232741282864,60,90.12232741282864,60,90.12232741282864,60,41.26062317016363,83,41.26062317016363,83,0.9734399639035055,1.0,0.9557332731725092,0.004096489768063491,0.0,0.9445033467140199,1.0,0.9075055778566999,0.0013545736776678118,0.0,0.9865151161360664,1.0,0.9775251935601104,0.004112734848167066,0.0,0.9865151161360664,1.0,0.9775251935601104,0.004096489768063491,0.0,0
s7_run,7,run,250.0,31.973754669327672,82,82.41758241758144,1.5152198117756628,103.8723913473187,77,104.58250331675944,17,36.83463212055728,82,103.8723913473187,77,103.8723913473187,77,103.8723913473187,77,36.83463212055728,82,36.83463212055728,82,0.9749947859739819,1.0,0.9583246432899699,0.005147082098414248,0.0,0.9432462936875078,1.0,0.9054104894791797,0.001460096156202186,0.0,0.9865198921772198,1.0,0.9775331536286995,0.005141913002091011,0.0,0.9865198921772198,1.0,0.9775331536286995,0.005147082098414248,0.0,0
s7_run,7,run,310.0,33.307144183473014,83,84.50704225352357,1.6271205766363541,122.36103228651768,73,,9,38.05512805239706,84,122.36103228651768,73,122.36103228651768,73,122.36103228651768,73,38.05512805239706,84,38.05512805239706,84,0.966300929241829,1.0,0.943834882069715,0.006481387483244429,0.0,0.9448294659727794,1.0,0.9080491099546324,0.001899146490218925,0.0,0.9844511116832037,1.0,0.9740851861386727,0.006436975947014147,0.0,0.9844511116832037,1.0,0.9740851861386727,0.006481387483244429,0.0,0
s7_run,7,run,370.0,34.700144091917586,81,82.19178082191576,1.4502050952121792,80.83236336852916,63,88.74790406646501,22,38.809442659051065,82,80.83236336852916,63,80.83236336852916,63,80.83236336852916,63,38.809442659051065,82,38.809442659051065,82,0.9729286336812534,1.0,0.9548810561354223,0.006283727420977554,0.0,0.9556959632885165,1.0,0.9261599388141941,0.001534230790705738,0.0,0.9870868299795232,1.0,0.9784780499658721,0.0062399483886885635,0.0,0.9870868299795232,1.0,0.9784780499658721,0.006283727420977554,0.0,0
s7_run,7,run,430.0,34.59933415617235,80,80.97165991902993,1.7577380132302762,94.43086095128012,65,103.85429353529052,15,37.71604433129222,81,94.43086095128012,65,94.43086095128012,65,94.43086095128012,65,37.71604433129222,81,37.71604433129222,81,0.9749400646795682,1.0,0.9582334411326137,0.004333766410895051,0.0,0.9571256463872548,1.0,0.928542743978758,0.0021847123876289555,0.0,0.9861773541389562,1.0,0.9769622568982603,0.004324603112342937,0.0,0.9861773541389562,1.0,0.9769622568982603,0.004333766410895051,0.0,0
s7_sit,7,sit,10.0,51.8320111229451,62,62.893081761006364,0.01556091787040006,112.25881175358366,50,199.4175191370495,50,49.87080081764828,63,112.25881175358366,50,112.25881175358366,50,112.25881175358366,50,49.87080081764828,63,49.87080081764828,63,0.9817308836420919,1.0,0.9695514727368199,0.0047227666243880055,0.0,0.9608365813351198,1.0,0.934727635558533,0.0008545844682810151,0.0,0.9899020817347888,1.0,0.9831701362246479,0.004705846473654341,0.0,0.9898006626256213,1.0,0.9830011043760354,0.0047227666243880055,0.0,0
s7_sit,7,sit,70.0,48.89290469006953,63,63.02521008403373,0.015068685140594087,85.44003745317531,55,160.68111604240113,39,48.6997604374669,61,85.44003745317531,55,85.44003745317531,55,85.44003745317531,55,48.6997604374669,61,48.6997604374669,61,0.9773191171994575,1.0,0.9621985286657626,0.005032065622763225,0.0,0.9614351279769882,1.0,0.9357252132949802,0.0009949383894872306,0.0,0.9865073071045414,1.0,0.9775121785075689,0.004995272133450086,0.0,0.9865073071045414,1.0,0.9775121785075689,0.005032065622763225,0.0,0
s7_sit,7,sit,130.0,50.85553769537499,64,63.96588486140708,0.015015417839037964,91.85586535436917,49,172.0142112992089,46,52.35713744342639,64,91.85586535436917,49,91.85586535436917,49,91.85586535436917,49,52.35713744342639,64,52.35713744342639,64,0.9778179392017278,1.0,0.9630298986695462,0.005219527893439284,0.0,0.9645621558546482,1.0,0.9409369264244137,0.0009554137653716411,0.0,0.984437696255804,1.0,0.9740628270930067,0.005171066477387154,0.0,0.984437696255804,1.0,0.9740628270930067,0.005219527893439284,0.0,0
s7_sit,7,sit,190.0,50.233107403033685,64,65.07592190889392,0.01440296305746318,115.94454387724315,52,194.3479125463176,46,51.59010042186836,66,115.94454387724315,52,115.94454387724315,52,115.94454387724315,52,51.59010042186836,66,51.59010042186836,66,0.9758574945407402,1.0,0.9597624909012337,0.0037367620055208414,0.0,0.9602937821458687,1.0,0.9338229702431144,0.0008346096875877446,0.0,0.9837068953957966,1.0,0.9728448256596609,0.003734903726620497,0.0,0.9837068953957966,1.0,0.9728448256596609,0.0037367620055208414,0.0,0
s7_sit,7,sit,250.0,55.58234274835687,64,64.65517241379527,0.014968840913457794,117.22162381962251,45,201.5999831138122,48,51.99358934843154,61,117.22162381962251,45,117.22162381962251,45,117.22162381962251,45,51.99358934843154,61,51.99358934843154,61,0.9751704737711209,1.0,0.9586174562852015,0.0034417835799406713,0.0,0.9595002160956,1.0,0.9325003601593332,0.0007650331740616241,0.0,0.9824280776365704,1.0,0.9707134627276173,0.003436141453294008,0.0,0.9824280776365704,1.0,0.9707134627276173,0.0034417835799406713,0.0,0
s7_sit,7,sit,310.0,43.03486958269363,64,65.57377049180386,0.015244299851153461,130.12814197295424,49,174.85287933507044,35,46.46907573860276,65,130.12814197295424,49,130.12814197295424,49,130.12814197295424,49,46.46907573860276,65,46.46907573860276,65,0.9732336124797807,1.0,0.9553893541329678,0.0027244467820345232,0.0,0.9611738253872769,1.0,0.9352897089787948,0.000687490657376041,0.0,0.9862200562081206,1.0,0.9770334270135342,0.0027381566991923276,0.0,0.9862200562081206,1.0,0.9770334270135342,0.0027244467820345232,0.0,0
s7_sit,7,sit,370.0,57.38663438860898,63,63.02521008403373,0.015137489282767277,157.18999857552615,47,171.06159406926278,30,57.89358053071745,61,157.18999857552615,47,157.18999857552615,47,157.18999857552615,47,57.89358053071745,61,57.89358053071745,61,0.9691869924779015,1.0,0.948644987463169,0.002812947301715877,0.0,0.9604877514485526,1.0,0.9341462524142542,0.0007901852732764975,0.0,0.9836214536583366,1.0,0.9727024227638944,0.00283381303525189,0.0,0.9836214536583366,1.0,0.9727024227638944,0.002812947301715877,0.0,0
s7_sit,7,sit,430.0,45.988266274357166,64,64.5855758880535,0.015111306852663247,126.0565107498975,42,170.1896475377755,32,48.519051522631166,62,126.0565107498975,42,126.0565107498975,42,126.0565107498975,42,48.519051522631166,62,48.519051522631166,62,0.967069197639341,1.0,0.9451153293989016,0.002361796774123034,0.0,0.9571370142750726,1.0,0.9285616904584543,0.0007486514578037773,0.0,0.9870778196641994,1.0,0.9784630327736656,0.0023802610826698383,0.0,0.9870778196641994,1.0,0.9784630327736656,0.002361796774123034,0.0,0
s8_sit,8,sit,10.0,17.69623198610393,84,84.86562942008479,0.02323303922883696,127.65794814322346,59,128.96136817961656,59,28.37715908780752,77,127.65794814322346,59,127.65794814322346,59,127.65794814322346,59,28.37715908780752,77,28.37715908780752,77,0.9690966711819687,1.0,0.9484944519699479,0.003580979010238278,0.0,0.9695794726646335,1.0,0.9492991211077224,0.0014950470968899763,0.0,0.9854822283285832,1.0,0.9758037138809721,0.00369819225518933,0.0,0.985757763454348,1.0,0.97626293909058,0.003580979010238278,0.0,0
s8_sit,8,sit,70.0,15.647348215363612,82,81.41112618724617,0.024459709261267427,139.26072090541817,63,115.94877164963337,69,46.636895265444075,69,139.26072090541817,63,139.26072090541817,63,139.26072090541817,63,46.636895265444075,69,46.636895265444075,69,0.9651461364963532,1.0,0.941910227493922,0.0033628134838787835,0.0,0.9688385510422948,1.0,0.9480642517371578,0.0013491003258614216,0.0,0.9843264772162239,1.0,0.9738774620270398,0.003489372147109527,0.0,0.9843264772162239,1.0,0.9738774620270398,0.0033628134838787835,0.0,0
s8_sit,8,sit,130.0,24.10272134989334,86,89.15304606240878,0.02408361159221313,166.29491874377882,51,128.08200498118384,61,86.92606255247728,58,166.29491874377882,51,166.29491874377882,51,166.29491874377882,51,86.92606255247728,58,86.92606255247728,58,0.9556588875514511,1.0,0.9260981459190851,0.0038542402265122786,0.0,0.9640064366380245,1.0,0.9400107277300409,0.0014130619038538583,0.0,0.9771773429609012,1.0,0.9619622382681685,0.004015573748071256,0.0,0.9771773429609012,1.0,0.9619622382681685,0.0038542402265122786,0.0,0
s8_sit,8,sit,190.0,33.57612726088055,88,91.0470409711676,0.028334855311827337,138.8466001685975,38,126.45345464033868,43,134.46543191821598,43,138.8466001685975,38,138.8466001685975,38,138.8466001685975,38,134.46543191821598,43,134.46543191821598,43,0.9572679224461597,1.0,0.9287798707435995,0.006590416860735197,0.0,0.9604119394338677,1.0,0.9340198990564462,0.0015056376033449731,0.0,0.9611281540422472,1.0,0.9352135900704119,0.006679253271062937,0.0,0.9611281540422472,1.0,0.9352135900704119,0.006590416860735197,0.0,0
s8_sit,8,sit,250.0,14.700066463216803,88,91.1854103343483,0.023710234263694945,110.97213530798989,55,116.18106220760023,52,140.24638183941724,43,110.97213530798989,55,110.97213530798989,55,110.97213530798989,55,140.24638183941724,43,140.24638183941724,43,0.9574415338482941,1.0,0.9290692230804902,0.009195394195310048,0.016666666666666666,0.9593749132393271,1.0,0.9322915220655451,0.0019193921784556663,0.0,0.9532389505876262,1.0,0.9220649176460438,0.009002931267840367,0.016666666666666666,0.9532389505876262,1.0,0.9220649176460438,0.009195394195310048,0.016666666666666666,0
s8_sit,8,sit,310.0,24.06164921535406,82,82.41758241758144,0.02206727908929505,118.74342087037917,58,133.5974395790165,59,61.84347487500508,66,118.74342087037917,58,118.74342087037917,58,118.74342087037917,58,61.84347487500508,66,61.84347487500508,66,0.95225956246624,1.0,0.9204326041104,0.00511538044556566,0.08333333333333333,0.9601899251136599,1.0,0.9336498751894331,0.001171268570911403,0.0,0.961677390620842,1.0,0.9361289843680702,0.005017944173358883,0.08333333333333333,0.961677390620842,1.0,0.9361289843680702,0.00511538044556566,0.08333333333333333,0
s8_sit,8,sit,370.0,19.989770110998275,89,86.95652173913072,0.021833154615091256,130.88640112708424,33,107.64971685267705,53,111.1080555135405,41,116.75294428835618,33,116.75294428835618,33,116.75294428835618,33,111.1080555135405,41,111.6542281629615,40,0.9642345665220244,1.0,0.9416506721862858,0.006417450131794756,0.2,0.9631365849493203,1.0,0.9385609749155339,0.0012995260732087915,0.0,0.9748770861552288,1.0,0.9582527744421193,0.006267879931277487,0.2,0.9748770861552288,1.0,0.9582527744421193,0.006417450131794756,0.2,0
s8_run,8,run,10.0,18.45912052170355,93,94.33962264150955,1.1681276335660533,133.1218560996975,15,265.61877443684835,16,117.81341180018512,21,133.1218560996975,15,133.1218560996975,15,133.1218560996975,15,137.21724173212135,22,137.21724173212135,22,0.9657979447941125,1.0,0.9429965746568542,0.005796471550651085,0.0,0.9588954584828716,1.0,0.9322221221181632,0.004284130646771302,0.06666666666666667,0.9239776305634525,1.0,0.8732960509390875,0.005825186221999278,0.0,0.9502570334456732,1.0,0.9170950557427888,0.005796471550651085,0.0,0
s8_run,8,run,70.0,16.530962684391223,89,88.75739644970389,0.9582890435244339,105.74785433119754,24,241.131591552091,19,135.27749258468683,19,105.74785433119754,24,105.74785433119754,24,105.74785433119754,24,135.27749258468683,19,135.27749258468683,19,0.9657366914760698,1.0,0.9428944857934497,0.004373325929939081,0.15,0.9589055693227764,1.0,0.9315092822046274,0.002004914569017466,0.0,0.927795492907921,1.0,0.8827688599263539,0.004475875369728004,0.15,0.9497634588680696,1.0,0.9162724314467826,0.004373325929939081,0.15,0
s8_run,8,run,130.0,20.062552781149286,84,84.7457627118646,0.5855896403680853,101.79164239532861,27,256.2257069523388,32,186.16952196611268,23,101.79164239532861,27,101.79164239532861,27,101.79164239532861,27,186.16952196611268,23,186.16952196611268,23,0.9657397305783532,1.0,0.9428995509639219,0.0040737026964459,0.0,0.9559938589466979,1.0,0.9266564315778298,0.0017679321717768562,0.0,0.9338938794079612,1.0,0.889823132346602,0.004111503910050947,0.0,0.9405823967247231,1.0,0.9009706612078717,0.0040737026964459,0.0,0
s8_run,8,run,190.0,20.702601313588225,88,87.9765395894407,0.6613544772631749,124.62710336687209,48,175.95162505351965,40,158.74507866387543,45,124.62710336687209,48,124.62710336687209,48,124.62710336687209,48,158.74507866387543,45,158.74507866387543,45,0.9671113010124519,1.0,0.9451855016874199,0.0060069816598170185,0.0,0.9438495438822807,1.0,0.906415906470468,0.0019917541503910235,0.0,0.9413935441886201,1.0,0.9023225736477003,0.0057073155853426,0.0,0.9413935441886201,1.0,0.9023225736477003,0.0060069816598170185,0.0,0
s8_run,8,run,250.0,16.47909098101028,92,96.46302250804081,1.1399153550978256,112.87899125464696,37,156.47777515560176,35,117.18041645257965,33,112.87899125464696,37,112.87899125464696,37,112.87899125464696,37,117.18041645257965,33,117.18041645257965,33,0.9564384603211978,1.0,0.927397433868663,0.007701291242607412,0.15,0.9419289881314952,1.0,0.9032149802191586,0.002529691174345175,0.0,0.9550587744608223,1.0,0.9273310190422168,0.007460546942166952,0.15,0.9550587744608223,1.0,0.9273310190422168,0.007701291242607412,0.15,0
s8_run,8,run,310.0,23.86896044504428,89,87.97653958944804,0.6345252088554864,112.98326155366709,24,168.03571049035975,26,,7,112.98326155366709,24,112.98326155366709,24,112.98326155366709,24,,7,,7,0.954119138444314,1.0,0.92353189740719,0.008221005819382,0.11666666666666667,0.9452171996970864,1.0,0.9086953328284774,0.0023711603611727364,0.0,0.9586953356074818,1.0,0.9311588926791362,0.0076784076734785125,0.11666666666666667,0.9586953356074818,1.0,0.9311588926791362,0.008221005819382,0.11666666666666667,0
s8_run,8,run,370.0,18.33030277982555,88,90.22556390977552,0.8648318327361145,123.28828005937953,43,138.8254299471102,41,124.23516007958456,33,123.28828005937953,43,123.28828005937953,43,123.28828005937953,43,124.23516007958456,33,124.23516007958456,33,0.9529022238045759,1.0,0.9245893675995587,0.004218453730942899,0.08333333333333333,0.9481342047488235,1.0,0.913557007914706,0.0018878193593087854,0.0,0.9581121260167211,1.0,0.9301868766945351,0.004304229982496993,0.08333333333333333,0.9581121260167211,1.0,0.9301868766945351,0.004218453730942899,0.08333333333333333,0
s8_walk,8,walk,10.0,21.330729007701443,85,85.7142857142871,0.435191249197952,109.00737908807905,47,127.58190646460358,36,178.86393625409144,27,109.00737908807905,47,109.00737908807905,47,109.00737908807905,47,178.86393625409144,27,178.86393625409144,27,0.9649924002091685,1.0,0.9416540003486142,0.001881023595607718,0.0,0.9652250128465307,1.0,0.9420416880775513,0.0016281227238391903,0.0,0.9134827062757314,1.0,0.8558045104595522,0.0018894831267832722,0.0,0.9134827062757314,1.0,0.8558045104595522,0.001881023595607718,0.0,0
s8_walk,8,walk,70.0,28.002678443319788,81,81.74386920980986,0.41811905081630885,93.11397728567633,48,128.49124483792662,41,115.48809462451098,17,93.11397728567633,48,93.11397728567633,48,93.11397728567633,48,115.48809462451098,17,115.48809462451098,17,0.9716569877318636,1.0,0.9527616462197727,0.0017513420454704988,0.0,0.9599138938310742,1.0,0.9331898230517903,0.0015650876694629698,0.0,0.9249461641231843,1.0,0.8749102735386405,0.0017586742571102172,0.0,0.9249461641231843,1.0,0.8749102735386405,0.0017513420454704988,0.0,0
s8_walk,8,walk,130.0,19.238928339085433,89,89.02077151335224,0.6658775621082621,130.66144723331152,30,119.36104399480348,18,200.82522060430864,14,130.66144723331152,30,130.66144723331152,30,130.66144723331152,30,200.82522060430864,14,200.82522060430864,14,0.9721757062204252,1.0,0.9536261770340418,0.005695139966104748,0.0,0.9576411417540891,1.0,0.9294019029234818,0.0026159074959167003,0.0,0.9314336403575536,1.0,0.885722733929256,0.005499292773308158,0.0,0.9314336403575536,1.0,0.885722733929256,0.005695139966104748,0.0,0
s8_walk,8,walk,190.0,17.911660621139742,88,89.55223880596802,0.3949448778777377,112.37528699943385,40,171.83223152096258,39,193.69047472707584,26,112.37528699943385,40,112.37528699943385,40,112.37528699943385,40,193.69047472707584,26,193.69047472707584,26,0.9658901986549193,1.0,0.9431503310915322,0.0018970169875859838,0.0,0.956297952906147,1.0,0.9271632548435784,0.0014460763482252359,0.0,0.9493680192214521,1.0,0.9156133653690868,0.0019032395820024611,0.0,0.9493680192214521,1.0,0.9156133653690868,0.0018970169875859838,0.0,0
s8_walk,8,walk,250.0,18.590803574029717,90,92.59259259258909,0.9049752907563406,119.54078801814885,31,112.72713696092617,28,182.89341158171882,23,119.54078801814885,31,119.54078801814885,31,119.54078801814885,31,182.89341158171882,23,182.89341158171882,23,0.9627823053527141,1.0,0.9379705089211903,0.002269747508450836,0.08333333333333333,0.9507327992476147,1.0,0.9178879987460243,0.0019661756124275467,0.0,0.9467706312992912,1.0,0.9112843854988186,0.002234128939142911,0.08333333333333333,0.9467706312992912,1.0,0.9112843854988186,0.002269747508450836,0.08333333333333333,0
s8_walk,8,walk,310.0,20.314383015574187,90,91.46341463414949,0.42762374646433626,97.63452258294706,41,167.28773172347454,28,153.19328254914385,23,97.63452258294706,41,97.63452258294706,41,97.63452258294706,41,153.19328254914385,23,153.19328254914385,23,0.964851511446563,1.0,0.9414191857442717,0.0022123942371194425,0.0,0.94901319073264,1.0,0.9150219845544,0.00153018096211469,0.0,0.9383789367608664,1.0,0.8972982279347772,0.002215877326228601,0.0,0.9383789367608664,1.0,0.8972982279347772,0.0022123942371194425,0.0,0
s8_walk,8,walk,370.0,21.177818584548266,89,89.82035928143627,0.5765807375826563,107.11081772037441,23,124.37994360173336,28,139.97899002014134,18,107.11081772037441,23,107.11081772037441,23,107.11081772037441,23,139.97899002014134,18,139.97899002014134,18,0.9633917091267549,1.0,0.9389861818779247,0.0023719630242305173,0.0,0.9504785378750192,1.0,0.9174642297916987,0.00129791367751926,0.0,0.932873142074478,1.0,0.8881219034574634,0.0024206295262809373,0.0,0.932873142074478,1.0,0.8881219034574634,0.0023719630242305173,0.0,0
s9_walk,9,walk,10.0,30.906965336783077,80,81.30081300813013,0.8096208656188042,174.87537090407332,44,170.87120792272083,34,299.4995826374387,12,174.87537090407332,44,174.87537090407332,44,174.87537090407332,44,299.4995826374387,12,299.4995826374387,12,0.9538418820401032,1.0,0.923069803400172,0.0009997605181117824,0.0,0.939040160526342,1.0,0.8984002675439033,0.0016036895877705611,0.0,0.9440926855007701,1.0,0.9068211425012835,0.0009880614499647852,0.0,0.9440926855007701,1.0,0.9068211425012835,0.0009997605181117824,0.0,0
s9_walk,9,walk,70.0,39.65988737587062,76,78.32898172323779,0.9118139161319596,146.75538442300117,36,117.04699910719626,29,136.6731336237867,45,146.75538442300117,36,146.75538442300117,36,146.75538442300117,36,136.6731336237867,45,136.6731336237867,45,0.9526726620655201,1.0,0.9211211034425335,0.0009534752850930348,0.0,0.9391222379255693,1.0,0.898537063209282,0.0020550811473481084,0.0,0.9157736001626462,1.0,0.8596226669377436,0.0009427475327156252,0.0,0.9157736001626462,1.0,0.8596226669377436,0.0009534752850930348,0.0,0
s9_walk,9,walk,130.0,27.632726386801966,75,77.1208226221088,0.9748614548739132,153.87224137792583,31,136.075959179668,25,140.4358295529393,46,153.87224137792583,31,153.87224137792583,31,153.87224137792583,31,140.4358295529393,46,140.4358295529393,46,0.9540482875393106,1.0,0.9234138125655178,0.0008656875258654018,0.0,0.957982372928498,1.0,0.9299706215474965,0.0018701381197176832,0.0,0.9628036062252108,1.0,0.9380060103753514,0.0008625480217590533,0.0,0.9628036062252108,1.0,0.9380060103753514,0.0008656875258654018,0.0,0
s9_walk,9,walk,190.0,38.29250304529423,77,78.74015748031492,0.8844943916807796,180.11107683871083,31,148.22478954376734,35,142.247583459263,33,180.11107683871083,31,180.11107683871083,31,180.11107683871083,31,142.247583459263,33,142.247583459263,33,0.945639638117208,1.0,0.9093993968620132,0.0008086415395147335,0.0,0.9527492480844136,1.0,0.9212487468073561,0.001954033113229448,0.0,0.9605997884270085,1.0,0.9343329807116809,0.0008072849576484965,0.0,0.9605997884270085,1.0,0.9343329807116809,0.0008086415395147335,0.0,0
s9_walk,9,walk,250.0,46.40382601135787,74,77.31958762886494,1.0162932874672013,148.5976110171358,33,63.63961030678928,11,175.2064419400648,38,148.5976110171358,33,148.5976110171358,33,148.5976110171358,33,175.2064419400648,38,175.2064419400648,38,0.9318855461334489,1.0,0.8864759102224148,0.0009465616524580659,0.0,0.947461094803234,1.0,0.91243515800539,0.002230632657474913,0.0,0.9557312844049847,1.0,0.9262188073416412,0.0009495962812777814,0.0,0.9557312844049847,1.0,0.9262188073416412,0.0009465616524580659,0.0,0
s9_walk,9,walk,310.0,49.28445745343086,72,72.46376811594178,0.9581146399283486,139.60659010233005,21,133.662969717436,39,178.79867314172492,30,139.60659010233005,21,139.60659010233005,21,139.60659010233005,21,178.79867314172492,30,178.79867314172492,30,0.948968320490069,1.0,0.9149472008167816,0.0009411253551367654,0.0,0.9517532138675249,1.0,0.9195886897792082,0.0021632953029408824,0.0,0.9504787494382045,1.0,0.9174645823970076,0.0009411648130806073,0.0,0.9504787494382045,1.0,0.9174645823970076,0.0009411253551367654,0.0,0
s9_walk,9,walk,370.0,40.75452743989549,74,75.28230865746309,0.8250940075359726,176.8728356758041,26,157.01910711757344,41,205.28841500029498,31,176.8728356758041,26,176.8728356758041,26,176.8728356758041,26,205.28841500029498,31,205.28841500029498,31,0.9580213865796536,1.0,0.9300356442994228,0.0008641281289098889,0.0,0.9546739390529548,1.0,0.924456565088258,0.001945764580663447,0.0,0.9501912844359532,1.0,0.916985474059922,0.0008688408905457592,0.0,0.9501912844359532,1.0,0.916985474059922,0.0008641281289098889,0.0,0
s9_sit,9,sit,10.0,86.45047258706235,58,58.30903790087434,0.021535186031080733,195.7300600578675,40,204.6889371109483,42,94.53487242950698,58,195.7300600578675,40,195.7300600578675,40,195.7300600578675,40,94.53487242950698,58,94.53487242950698,58,0.9626867457590582,1.0,0.9378112429317637,0.00068912645657679,0.0,0.9570521856082821,1.0,0.9288681665314569,0.00028868892060181494,0.0,0.9767337325216292,1.0,0.9612228875360487,0.0006910838255977981,0.0,0.9767337325216292,1.0,0.9612228875360487,0.00068912645657679,0.0,0
s9_sit,9,sit,70.0,57.31729867389929,67,68.49315068493225,0.03205075560513029,185.48409049319287,47,175.89285907148258,48,78.2867393580933,60,185.48409049319287,47,185.48409049319287,47,185.48409049319287,47,78.2867393580933,60,78.2867393580933,60,0.9535547335433439,1.0,0.9225912225722398,0.0007761797997448846,0.0,0.9504418493555767,1.0,0.9174030822592946,0.00030730249750052176,0.0,0.9619898971263512,1.0,0.9366498285439186,0.0007778286880090729,0.0,0.9619898971263512,1.0,0.9366498285439186,0.0007761797997448846,0.0,0
s9_sit,9,sit,130.0,68.33362181947767,63,62.76150627614949,0.025524257299194015,202.88396871587653,43,209.33824304221147,41,73.3507182572363,62,202.88396871587653,43,202.88396871587653,43,202.88396871587653,43,73.3507182572363,62,73.3507182572363,62,0.9431791868169443,1.0,0.9052986446949074,0.0009133001772264068,0.0,0.9458975110291199,1.0,0.9098291850485333,0.00031633793156722443,0.0,0.9636247965173753,1.0,0.9393746608622922,0.0009180797191513967,0.0,0.9636247965173753,1.0,0.9393746608622922,0.0009133001772264068,0.0,0
s9_sit,9,sit,190.0,59.144144686912504,68,68.18181818181743,0.0356118790377828,203.80931110750964,35,184.4791536719932,44,94.73896610219687,54,203.80931110750964,35,203.80931110750964,35,203.80931110750964,35,94.73896610219687,54,94.73896610219687,54,0.9468806842167345,1.0,0.911467807027891,0.00080561625198828,0.0,0.9492848932702743,1.0,0.9154748221171238,0.0003125166253781338,0.0,0.9611755660801445,1.0,0.9352926101335742,0.0008042718680465672,0.0,0.9611755660801445,1.0,0.9352926101335742,0.00080561625198828,0.0,0
s9_sit,9,sit,250.0,50.78694995483034,71,72.99270072992677,0.024265582915514384,180.0,39,182.78098612516808,46,84.37205738748233,60,180.0,39,180.0,39,180.0,39,84.37205738748233,60,84.37205738748233,60,0.954229826316825,1.0,0.9237163771947083,0.0007992134533299267,0.0,0.956249827201747,1.0,0.9271283439479809,0.00026958619296784346,0.0,0.9666853154757287,1.0,0.9444755257928812,0.0007975513923495629,0.0,0.9666853154757287,1.0,0.9444755257928812,0.0007992134533299267,0.0,0
s9_sit,9,sit,310.0,46.49512986807184,70,72.02881152460998,0.03078633232997215,164.33399032871588,54,177.75826281779422,51,124.93446557957965,59,164.33399032871588,54,164.33399032871588,54,164.33399032871588,54,124.93446557957965,59,124.93446557957965,59,0.9568885713350362,1.0,0.928147618891727,0.0009735469024675845,0.0,0.9590937225749265,1.0,0.931822870958211,0.0002756049143200381,0.0,0.9675043577826563,1.0,0.9458405963044272,0.0009705074080380815,0.0,0.9675043577826563,1.0,0.9458405963044272,0.0009735469024675845,0.0,0
s9_sit,9,sit,370.0,77.96189545448989,71,70.09345794392569,0.033850570898844336,116.61903789690601,26,151.63623705136175,32,90.49467229779727,29,116.61903789690601,26,116.61903789690601,26,116.61903789690601,26,90.49467229779727,29,90.49467229779727,29,0.9524597573455583,1.0,0.9207662622425973,0.0009926660726685558,0.0,0.9503544194071801,1.0,0.9173670621826598,0.0002835581184283607,0.0,0.9467546072762508,1.0,0.9112576787937514,0.0009871480267272053,0.0,0.9467546072762508,1.0,0.9112576787937514,0.0009926660726685558,0.0,0
s9_run,9,run,10.0,19.177192335750515,86,87.46355685131195,2.0056026661676203,205.07034440368543,27,73.824115301167,19,247.62124115222312,44,205.07034440368543,27,205.07034440368543,27,205.07034440368543,27,160.0130203035574,49,160.0130203035574,49,0.9332716688325251,1.0,0.8887861147208752,0.0011881013358650892,0.0,0.9613325901504406,1.0,0.935554316917401,0.002465204109112648,0.0,0.9134461111872508,1.0,0.8557435186454181,0.0011848482478245012,0.0,0.949063537885702,1.0,0.9151058964761698,0.0011881013358650892,0.0,0
s9_run,9,run,70.0,27.37688762265692,84,84.62623413258072,2.664154176519457,167.57940548545082,36,85.4107721543366,21,160.25922397142864,54,167.57940548545082,36,167.57940548545082,36,167.57940548545082,36,160.25922397142864,54,160.25922397142864,54,0.9449812996115248,1.0,0.9083021660192079,0.0009574601120210063,0.0,0.9641790987687063,1.0,0.9402984979478438,0.0026830329875778477,0.0,0.9482158925462032,1.0,0.9136931542436721,0.0009610801774703393,0.0,0.9482335642925476,1.0,0.913722607154246,0.0009574601120210063,0.0,0
s9_run,9,run,130.0,33.18734698646001,81,83.33333333333347,2.2073455008768206,146.05057079919007,27,69.88085097745542,19,175.9119097730452,41,146.05057079919007,27,146.05057079919007,27,146.05057079919007,27,175.9119097730452,41,175.9119097730452,41,0.9485754630299802,1.0,0.9142924383833003,0.0010599647596569845,0.0,0.9613738267615175,1.0,0.9356230446025293,0.0031767581936648992,0.0,0.9535810150954035,1.0,0.9226350251590059,0.0010570603231937412,0.0,0.9535810150954035,1.0,0.9226350251590059,0.0010599647596569845,0.0,0
s9_run,9,run,190.0,36.01249783061465,81,81.96721311475417,2.3096252023959325,96.21690240125334,27,112.91589790636215,19,129.20016612539345,42,96.21690240125334,27,96.21690240125334,27,96.21690240125334,27,129.20016612539345,42,129.20016612539345,42,0.9517505239135339,1.0,0.9195842065225566,0.0008109515935508329,0.0,0.9612743372585778,1.0,0.9354572287642964,0.002187592251462929,0.0,0.953923802790593,1.0,0.9232063379843216,0.0008111987199158679,0.0,0.953923802790593,1.0,0.9232063379843216,0.0008109515935508329,0.0,0
s9_run,9,run,250.0,37.0329993110752,80,81.30081300813013,2.0299864695327905,129.70662868107212,22,115.79435795121165,25,168.47578730812006,45,129.70662868107212,22,129.70662868107212,22,129.70662868107212,22,168.47578730812006,45,168.47578730812006,45,0.9699426919402883,1.0,0.9499044865671471,0.0008146460060947328,0.0,0.9586649275143171,1.0,0.9311082125238619,0.002471891737422539,0.0,0.9686692254959368,1.0,0.947782042493228,0.0008144674549241291,0.0,0.9686692254959368,1.0,0.947782042493228,0.0008146460060947328,0.0,0
s9_run,9,run,310.0,33.85409871788317,81,83.102493074788,1.35923926447728,193.55120502212648,30,63.08724118235002,21,188.38126233784504,41,193.55120502212648,30,193.55120502212648,30,193.55120502212648,30,188.38126233784504,41,188.38126233784504,41,0.9723829804006248,1.0,0.9539716340010411,0.0007761303039632065,0.0,0.9562774707666947,1.0,0.9271291179444912,0.0019793926452679493,0.0,0.9632437699270333,1.0,0.9387396165450556,0.0007806311072795667,0.0,0.9632437699270333,1.0,0.9387396165450556,0.0007761303039632065,0.0,0
s9_run,9,run,370.0,34.583232931587425,80,82.9875518672184,1.448474302446181,177.67546659168065,36,63.5741037425355,13,162.08576393932586,40,177.67546659168065,36,177.67546659168065,36,177.67546659168065,36,162.08576393932586,40,162.08576393932586,40,0.9599188822298055,1.0,0.9331981370496759,0.0006642753271938874,0.0,0.9612107045057156,1.0,0.9353511741761926,0.0021630048921012232,0.0,0.9519343032372223,1.0,0.9198905053953705,0.0006633538883040903,0.0,0.9519343032372223,1.0,0.9198905053953705,0.0006642753271938874,0.0,0
s10_run,10,run,10.0,8.195120499419273,101,102.38907849829377,4.690667108641172,97.57374093799478,64,85.38149682454625,21,44.12899750790439,96,97.57374093799478,64,97.57374093799478,64,97.57374093799478,64,44.12899750790439,96,44.12899750790439,96,0.9547422863026034,1.0,0.9245704771710057,0.007765940845612815,0.0,0.9481270780619222,1.0,0.9135451301032036,0.0018141057941743627,0.0,0.9833399079443801,1.0,0.9722331799073001,0.007893405256786584,0.0,0.9833601399285956,1.0,0.9722668998809927,0.007765940845612815,0.0,0
s10_run,10,run,70.0,10.31085474100964,103,104.1666666666653,4.871636964116032,70.59834972665426,64,99.11143689341267,14,53.812123920646954,95,70.59834972665426,64,70.59834972665426,64,70.59834972665426,64,53.812123920646954,95,53.812123920646954,95,0.9615056256247799,1.0,0.9358427093746332,0.007763444597674132,0.0,0.9507789644371856,1.0,0.9179649407286425,0.0015383249500007907,0.0,0.980057031606684,1.0,0.9667617193444733,0.00783728369505304,0.0,0.980057031606684,1.0,0.9667617193444733,0.007763444597674132,0.0,0
s10_run,10,run,130.0,16.388839477093526,102,102.7397260273967,4.182295630718054,96.8003744827467,65,117.66241729815194,46,37.78888725538237,101,96.8003744827467,65,96.8003744827467,65,96.8003744827467,65,37.78888725538237,101,37.78888725538237,101,0.96286228758366,1.0,0.9381038126394333,0.00804276400779488,0.0,0.9539956806706306,1.0,0.9233261344510509,0.0012444319353856533,0.0,0.9849267213708172,1.0,0.974877868951362,0.008004929802380639,0.0,0.9849267213708172,1.0,0.974877868951362,0.00804276400779488,0.0,0
s10_run,10,run,190.0,13.505554412903482,101,102.38907849829626,4.0235122136387895,84.994553202391,55,137.00084222088114,53,49.563753455177874,100,84.994553202391,55,84.994553202391,55,84.994553202391,55,49.563753455177874,100,49.563753455177874,100,0.9652874490493912,1.0,0.9421457484156521,0.007917898259973508,0.0,0.9496977472901272,1.0,0.9161629121502121,0.0010507136456010303,0.0,0.9837902989327314,1.0,0.9729838315545525,0.007888239246963302,0.0,0.9837902989327314,1.0,0.9729838315545525,0.007917898259973508,0.0,0
s10_run,10,run,250.0,15.898669025042961,100,101.351351351354,4.72816766898476,78.00759697096935,55,69.20179830675565,19,55.59159587487027,95,78.00759697096935,55,78.00759697096935,55,78.00759697096935,55,55.59159587487027,95,55.59159587487027,95,0.9690440505120461,1.0,0.94840675085341,0.008683087371080686,0.0,0.9427482003737396,1.0,0.9045803339562327,0.0014215470760439704,0.0,0.979210811565123,1.0,0.9653513526085384,0.008692722106760855,0.0,0.979210811565123,1.0,0.9653513526085384,0.008683087371080686,0.0,0
s10_run,10,run,310.0,13.364131097829906,101,102.3890784982913,5.385168199765676,67.33955289883788,53,,5,63.09811842693574,103,67.33955289883788,53,67.33955289883788,53,67.33955289883788,53,63.09811842693574,103,63.09811842693574,103,0.9738569788361496,1.0,0.9564282980602494,0.011102694667813775,0.0,0.9357645640215461,1.0,0.8929409400359102,0.0018711974692440356,0.0,0.9782246759696158,1.0,0.963707793282693,0.011101835700520746,0.0,0.9782246759696158,1.0,0.963707793282693,0.011102694667813775,0.0,0
s10_run,10,run,370.0,10.161078916750101,102,102.56410256410615,5.473525985201622,77.51458339111339,48,,2,43.22403071999612,102,77.51458339111339,48,77.51458339111339,48,77.51458339111339,48,43.22403071999612,102,43.22403071999612,102,0.9728432146604774,1.0,0.9547386911007956,0.012288538194989953,0.0,0.9343412601747779,1.0,0.8905687669579632,0.0027349500936729564,0.0,0.9851975013838908,1.0,0.9753291689731514,0.012160944619347108,0.0,0.9851975013838908,1.0,0.9753291689731514,0.012288538194989953,0.0,0
s10_walk,10,walk,10.0,14.317008911991804,87,88.75739644970389,0.4078314020595641,75.20985134362675,47,87.74964387392122,17,88.04387620914378,59,75.20985134362675,47,75.20985134362675,47,75.20985134362675,47,88.04387620914378,59,88.04387620914378,59,0.9806170923112661,1.0,0.9676951538521102,0.0028915641457204714,0.0,0.9870868161230631,1.0,0.9784780268717719,0.0019305995788041468,0.0,0.9788320385700247,1.0,0.9647200642833744,0.002860826289457308,0.0,0.9791484931938321,1.0,0.9652474886563869,0.0028915641457204714,0.0,0
s10_walk,10,walk,70.0,10.421870495039833,92,93.16770186335324,0.34682968160988303,81.99303106275035,36,228.6720557718172,12,48.78524367060187,71,81.99303106275035,36,81.99303106275035,36,81.99303106275035,36,48.78524367060187,71,48.78524367060187,71,0.9761312911235285,1.0,0.9602188185392141,0.00250680865979609,0.0,0.9785809009520441,1.0,0.9643015015867401,0.0019367384872916965,0.0,0.974812794170974,1.0,0.95802132361829,0.002491650682564726,0.0,0.974812794170974,1.0,0.95802132361829,0.00250680865979609,0.0,0
s10_walk,10,walk,130.0,19.731133952686125,86,86.70520231213959,0.2573178772643474,180.63945373283755,50,154.45468591143486,33,66.93762141942544,63,180.63945373283755,50,180.63945373283755,50,180.63945373283755,50,66.93762141942544,63,66.93762141942544,63,0.9600551753174908,1.0,0.9334252921958182,0.001989584835920241,0.0,0.9210888277562014,1.0,0.8684813795936689,0.0014215897491839306,0.0,0.9785580454714905,1.0,0.9642634091191509,0.0019809835338338256,0.0,0.9785580454714905,1.0,0.9642634091191509,0.001989584835920241,0.0,0
s10_walk,10,walk,190.0,12.163737983828147,93,94.63722397476548,0.3297211271501321,137.4422955839454,53,113.89468819923079,51,128.03082399130255,38,137.4422955839454,53,137.4422955839454,53,137.4422955839454,53,128.03082399130255,38,128.03082399130255,38,0.9634689631386941,1.0,0.9391149385644902,0.0019651428662306285,0.0,0.9583283721394191,1.0,0.9305472868990318,0.0016467139048866731,0.0,0.9651391875369986,1.0,0.9418986458949977,0.0019278213934953413,0.0,0.9651391875369986,1.0,0.9418986458949977,0.0019651428662306285,0.0,0
s10_walk,10,walk,250.0,16.90576463958023,83,83.33333333333675,0.2587810647239773,212.96203931376888,54,180.6642835021171,49,44.11523371981436,66,212.96203931376888,54,212.96203931376888,54,212.96203931376888,54,44.11523371981436,66,44.11523371981436,66,0.9546791927426747,1.0,0.9244653212377911,0.002341767093362786,0.0,0.9638606408785961,1.0,0.9397677347976603,0.0012852342219065137,0.0,0.9665759131871485,1.0,0.9442931886452477,0.0023683365318978066,0.0,0.9665759131871485,1.0,0.9442931886452477,0.002341767093362786,0.0,0
s10_walk,10,walk,310.0,17.810244784315785,84,85.7142857142871,0.2588296333730288,225.09826913868255,53,181.94600250098094,47,29.651657276125043,78,225.09826913868255,53,225.09826913868255,53,225.09826913868255,53,29.651657276125043,78,29.651657276125043,78,0.9588831974895967,1.0,0.9314719958159946,0.0027950918665311294,0.0,0.963740630567163,1.0,0.9395677176119384,0.0015158853925274548,0.0,0.986523942891442,1.0,0.9775399048190698,0.00283159387308705,0.0,0.986523942891442,1.0,0.9775399048190698,0.0027950918665311294,0.0,0
s10_walk,10,walk,370.0,14.997188491539022,84,82.98755186722167,0.241367112602361,177.2396369012555,37,174.79988558348657,41,115.19282857496833,50,177.2396369012555,37,177.2396369012555,37,177.2396369012555,37,115.19282857496833,50,115.19282857496833,50,0.953644207044744,1.0,0.9227403450745733,0.0017181730685844414,0.0,0.9629077412293077,1.0,0.9381795687155128,0.0012951329111138316,0.0,0.9796735619953603,1.0,0.9661226033256005,0.0017183571790841967,0.0,0.9796735619953603,1.0,0.9661226033256005,0.0017181730685844414,0.0,0
s10_sit,10,sit,10.0,20.106047959680623,80,83.44923504867859,0.02474947249755333,37.66629793329841,65,113.08095147858275,64,23.45207879911715,81,37.66629793329841,65,37.66629793329841,65,37.66629793329841,65,23.45207879911715,81,23.45207879911715,81,0.9803469125623394,1.0,0.9672448542705657,0.005452390041527084,0.0,0.9707998408589077,1.0,0.9513330680981795,0.0005235892771156597,0.0,0.9835260987823351,1.0,0.9725434979705585,0.005644417673180765,0.0,0.9835260987823351,1.0,0.9725434979705585,0.005452390041527084,0.0,0
s10_sit,10,sit,70.0,28.891248248425267,72,71.34363852556471,0.023710183820217945,74.90506812472191,66,133.95254227557442,68,26.299556396765833,73,74.90506812472191,66,74.90506812472191,66,74.90506812472191,66,26.299556396765833,73,26.299556396765833,73,0.9724900468070279,1.0,0.954150078011713,0.007036770251405842,0.0,0.9624084127192853,1.0,0.9373473545321421,0.0005379871072796786,0.0,0.9776324966875395,1.0,0.9627208278125658,0.007322934173445855,0.0,0.9776324966875395,1.0,0.9627208278125658,0.007036770251405842,0.0,0
s10_sit,10,sit,130.0,26.22873742036923,76,78.9473684210521,0.02520089929099927,68.7749954561976,61,90.00854660274469,66,27.06413738635563,78,68.7749954561976,61,68.7749954561976,61,68.7749954561976,61,27.06413738635563,78,27.06413738635563,78,0.9686641596406655,1.0,0.9477735994011092,0.008131769857698888,0.0,0.9654633940081433,1.0,0.9424389900135722,0.0004918109930127249,0.0,0.9773520618832522,1.0,0.9622534364720869,0.00830347309974427,0.0,0.9773520618832522,1.0,0.9622534364720869,0.008131769857698888,0.0,0
s10_sit,10,sit,190.0,29.17062517558222,68,67.64374295377674,0.021840982562283225,75.49834435270749,67,121.0747327442473,67,29.975114056272865,68,75.49834435270749,67,75.49834435270749,67,75.49834435270749,67,29.975114056272865,68,29.975114056272865,68,0.9734001861222477,1.0,0.9556669768704127,0.012026052626140782,0.0,0.9714035789495898,1.0,0.9523392982493165,0.0007279588395343696,0.0,0.9778596224837136,1.0,0.9630993708061895,0.011970251995772358,0.0,0.9778596224837136,1.0,0.9630993708061895,0.012026052626140782,0.0,0
s10_sit,10,sit,250.0,27.467539995872055,74,74.81296758105073,0.021364432625632913,63.65022664021984,75,99.71487128585964,73,28.307831660749528,76,63.65022664021984,75,63.65022664021984,75,63.65022664021984,75,28.307831660749528,76,28.307831660749528,76,0.9788860446941747,1.0,0.9648100744902911,0.011449444256867518,0.0,0.9710264954085233,1.0,0.951710825680872,0.0007097913190429733,0.0,0.9837370403130576,1.0,0.9728950671884296,0.011332958696208997,0.0,0.9837370403130576,1.0,0.9728950671884296,0.011449444256867518,0.0,0
