50000.78667341605
50003.013330290836
50000.07243203053
50002.64394013454
50000.22266784023
50000.59127599325
50000.52591699006
50001.3409682531
50000.577183507914
49999.60787039716
49998.51106124461
50000.43129215192
50001.5523524513
50001.40464254961
50000.441252634715
50001.78076368045
50000.07035768964
50000.74607438682
50000.90107650938
49998.02545175169
50000.6373869702
49999.38014492768
49998.777163916806
50000.36431669525
49998.91302590581
49999.24561443966
49999.25867529809
50000.87946969494
50000.99083467238
49999.94731096131
50002.44187672996
50000.2107770666
50000.35664729206
49998.58420562955
49997.75447074205
50000.75490723133
50000.081549279144
49999.0220750895
49999.75843572944
50000.171819959956
49999.92433394936
50001.06856889359
49998.98025993761
50000.358257847765
50000.7726901021
50000.20995043808
49998.44297870349
50000.348322912294
50002.55700687875
50000.72203762074
50000.238468039985
50002.61163625156
49999.52097817412
49997.84115349758
49999.93792346665
49998.71345604197
50000.33794195092
49999.10545767937
49998.883190147346
50002.33149337905
50001.631458733245
50001.26211544693
50000.36235943808
49999.78880729131
50001.06769746604
49999.36669652649
50000.34876387386
50002.03083714199
49999.793428618024
50000.41405655242
50000.422249074676
49998.26257992685
50001.8503666716
50000.62389677305
49999.90549488465
50003.343237549714
50001.67145445404
50000.367814787794
49998.006237138456
49999.5042399848
49996.131875756975
49999.40436963416
49993.73092801035
49996.283590656734
49991.92336366219
49987.43991738548
49987.18002656046
49983.364786188096
49980.709695283105
49977.58934145009
49974.88663128788
49974.85412452849
49971.46787167424
49969.43026924103
49966.732124482885
49970.212818535336
49973.58066692978
49972.18673750837
49975.068309398615
49975.72153312646
49981.3864726523
49981.66048522041
49986.21756039813
49987.91159061927
49989.46886451174
49991.83692445194
49992.12414149145
49991.66685917641
49993.54925579791
49992.826727217616
49990.1201730792
49990.45230372754
49992.169553483975
49990.044532850516
49984.86111042473
49992.17309100934
49989.714432839515
49989.927226307416
49989.395137590785
49990.296703007276
49988.52685430693
49989.71621077294
49987.878487253656
49993.19577062465
49992.27837120025
49990.30276816569
49993.78789829317
49992.297592182724
49994.55144922411
49995.88986356049
49997.91929882978
49995.48466747145
49997.259724781485
49998.39250826208
49999.37135174219
49999.62607425001
49999.916830270566
49999.41272818366
50000.217849946785
49998.933901737975
50000.25846601338
49997.02550516535
50000.83320112742
50000.72487838861
50001.3092610184
50000.16790520301
49998.90068940488
50000.15092099571
50002.97627343069
50000.53842979805
49997.57769282427
50000.0119046153
49998.58776772091
49998.81850460768
49999.09252400881
50002.16564652422
49999.31113552782
49999.48909064911
50000.0147160623
49999.71982342715
49998.54173479626
50000.11825155143
49997.939310184716
49995.04718672398
49991.876084318916
49992.429649559366
49990.2055294173
49987.62131124688
49982.459759117206
49978.77410360142
49974.32280761449
49974.476033332
49971.00798430112
49972.490377024886
49969.70852805649
49968.057474228764
49974.13986406483
49970.68066129284
49972.737968947105
49976.04415393912
49981.66475325825
49984.56880519266
49985.72076423163
49989.12372195602
49989.67728447659
49992.58342458398
49992.04565673366
49994.055707896056
49992.65141842231
49993.88016255613
49991.03256070517
49992.76836754135
49991.924369638815
49989.2152942107
49989.448784774955
49990.82576276691
49991.61477717274
49989.283960347966
49991.870905455406
49988.44369726902
49988.75312018635
49987.79143837879
49990.53173655299
49991.1785191925
49990.3266837672
49993.28983052413
49992.03772613583
49995.34228190125
49994.282060805286
49996.12652309338
49994.764851238964
49999.296634959595
49998.39694475063
49994.9840973105
49998.1939135397
49999.85035901532
50002.36803431705
49999.38787570506
50000.821468598406
49999.194401063534
50001.601580237315
49997.32413965296
49999.49847462107
49999.90219603265
49999.387303045136
50000.901026169064
49997.953321637055
50001.079516062724
49999.654260209565
49998.733528893805
49998.7265771795
49998.223533500044
49999.15335390127
50000.2394120628
50001.71322635919
49998.400413761025
49997.8481750276
49998.514610492915
49996.1391225548
49998.41043140583
49995.14659315561
49992.142471934814
49993.37540984509
49992.22215926863
49989.55915177496
49987.51965425097
49983.43579616093
49980.734815834156
49977.540738350945
49975.13464384961
49972.90038327059
49971.46437363835
49966.32304469566
49968.29112911068
49968.12303261078
49972.63555246174
49974.46386626205
49976.87265599286
49977.708736672255
49983.9788062669
49982.679438153325
49987.742763465074
49989.917806480815
49991.676875551966
49993.197039173574
49994.09580781744
49992.669903737886
49991.600864253836
49991.93557413018
49992.31654191195
49989.64759909462
49989.18615078748
49990.772884708924
49989.57514660626
49990.02071597565
49989.44644416752
49990.679313952896
49989.65115718634
49988.94584806974
49988.639478937555
49990.7804524324
49990.54926576871
49990.394036164435
49992.46838724959
49992.311421878585
49994.04460747227
49994.15767384223
49996.33230595052
49994.955570667735
49996.465433560705
49998.72857984586
49997.83248475796
50001.618914357874
49996.01385391589
49999.23187579233
49996.73732611614
49998.014894784734
49999.58447162223
50001.44639821524
50001.40364271343
49997.25194077751
49999.41194239134
49999.77607461016
50000.553694487025
50001.43584055182
49998.7852450071
49998.607399824905
49997.37736122283
50000.53869785187
50001.18244263092
49998.06850806653
49999.42190270547
49999.53821809949
50000.2332695382
50000.72757144034
49998.29256343668
50000.01250361965
50000.227486037824
49999.98763171338
49998.63840717161
50001.83555310146
50001.09135792977
49998.23820508851
49997.77426787311
49998.16226297236
49998.72906936867
49996.28297013869
49994.71892282761
49992.75299771612
49989.77544145594
49989.93901174262
49988.695612749674
49980.67223222801
49978.85090328268
49975.46610288863
49972.86076124382
49971.387529220425
49972.84186260133
49968.68211553038
49969.845194406545
49970.18376546785
49973.15812310615
49977.02568204463
49977.24115296151
49982.98579746748
49985.89209230341
49987.66600589297
49989.32018861833
49991.94470211865
49994.11706194513
49992.03744065863
49992.397425988755
49993.157779648616
49990.838185571694
49994.31706986112
49989.80088573396
49990.6270106194
49990.349504712714
49991.01369605017
49989.855251620116
49992.774571198024
49990.07542502031
49991.245616666376
49992.5702418934
49988.19992396866
49989.39992524404
49993.94334685312
49991.27798265731
49990.4616514163
49993.903444807
49992.47677681885
49995.37086362707
49991.47215537153
49996.176285072455
49995.62027467688
49997.28614074451
49996.8477764959
49999.89245052661
49996.3369140375
50000.05742592492
49998.40871390624
49997.208811814475
50000.96178809479
50000.86247684969
49999.80824670172
49999.41477267596
49999.75792745074
49998.764341779264
50001.58748026696
50001.52864249597
49998.91114667046
50001.9001403047
50002.06296899834
50000.05124723342
50000.00677124479
50001.5040507607
50003.52397187956
50000.08528701482
50000.47400528247
50000.417118601035
49999.058909962376
49999.244166399345
49999.25776240425
49998.04151394415
49995.66125153268
49999.10397996161
50001.021571564284
49994.27042860977
49994.535741160464
49989.92596699621
49991.463920457696
49988.898116413664
49983.88503183357
49980.09517419428
49979.24604717855
49975.25926368578
49972.18403353002
49968.6863981171
49967.656657478256
49966.39500002706
49973.3990543351
49972.449883327674
49974.814462837625
49979.19673202686
49981.08310526685
49983.047891066
49987.09331972196
49984.83347719686
49989.403211502504
49991.86736465509
49992.97256219525
49993.05912828153
49993.351666180686
49994.717269874716
49992.60439365695
49994.56972023989
49991.96582204454
49992.83866394396
49989.46047485117
49989.877788439815
49989.90064697121
49987.168746714626
49989.32860350057
49989.71636042004
49988.0851763028
49990.047758971836
49988.85593341984
49991.64454670482
49991.63336612495
49993.3440542638
49991.558493056924
49993.76543588375
49996.5001688973
49997.24883248045
49996.558945125194
49995.40660070085
49997.6122350758
49999.27991972509
49999.488430320154
49999.02462605594
49998.41184211726
49998.62143185428
50001.953938581515
50000.7571445785
49999.99906376879
49999.91204722131
49997.74406816832
49999.08568879174
50000.20740377333
50000.20855797442
49997.8233971383
49997.81132666703
49998.4851667235
50000.56133976912
50000.11631434828
49999.59026634216
50001.33596192794
49999.733655429096
50000.36839751555
50001.1566886361
49996.079906247156
49999.61470804109
49999.09350732758
49997.094483988214
49998.70389890202
49998.40972499736
49994.58947222287
49996.546263808224
49990.996602399005
49988.26943317602
49987.358942472114
49982.21754015291
49981.33252732505
49975.22856795512
49977.22814222003
49972.15810753672
49970.91928844913
49970.035519571975
49970.72425862517
49968.682201816635
49969.89842856305
49973.45249540236
49975.881061361586
49978.177607570586
49982.49168222613
49982.189490676654
49989.58949916164
49989.11721288978
49991.64815660789
49992.063552802276
49994.272221718544
49995.40285060751
49993.45985116543
49991.48060879502
49993.06218360614
49992.6634025334
49988.93507489433
49992.83107949597
49987.78019204985
49989.53603153734
49989.89680636557
49989.45679385838
49988.39822904148
49990.942881907446
49990.545405521174
49991.63092920521
49992.13642242084
49992.5490105214
49993.61268143752
49992.71444026356
49991.583612119255
49995.02077797655
49995.033781982056
49998.46767075884
49996.730938817986
49996.53007743411
50000.65784625746
49997.692607796904
50000.21593029252
50000.13007853546
49999.490018202836
50000.76676349088
49999.2549770202
49999.78002200703
50000.652385640446
49998.681452391225
49998.076579957866
50000.43531005906
49998.035861189324
50001.11289058095
50001.281369837605
49999.84986024866
50001.37702726971
49999.6880196779
49999.05127311995
49995.916436478044
49998.72213862049
49996.564465532625
49999.65396012391
50001.78702068402
49999.69634066854
49999.71526424421
50000.27093299122
50000.03877331128
49998.94844898831
49998.912596169306
49997.49225112645
50002.70340618966
49997.50345361284
49995.59980290891
49996.62737724131
49994.824388426525
49994.218937853766
49990.34897241305
49990.217421483365
49985.04153843433
49984.54126557408
49977.07512497555
49975.15103688476
49973.63016595686
49972.39015287015
49970.83046412865
49969.03396812749
49968.99915468825
49968.03416236365
49973.99669638351
49975.55796153926
49976.525290646794
49981.59036693625
49984.36987313981
49985.78023837115
49989.47620886643
49990.33943513338
49990.23647084304
49991.0846724612
49993.42943594738
49992.79749134139
49993.00516884554
49993.78795801891
49993.03199813243
49990.70205709298
49993.131695286116
49991.1118077403
49990.98257090646
49990.46623313726
49988.44134715014
49989.6837306297
49988.500960413585
49990.49025971644
49991.28428590298
49989.180539987276
49990.11164696669
49991.728006466394
49990.9252700606
49993.64019508743
49994.02069078925
49993.66193814191
49998.46808288659
49998.2776204524
49997.450961579925
49996.09675388551
49995.85898054145
49998.47653869906
49998.059955957986
49997.51196367925
50001.62098538377
49998.124286813
50001.346512557
49997.0758108863
49999.892798557434
50002.60566098064
49997.10913999618
50000.285232922724
50001.246417103226
50001.366887858625
50002.049645654595
50000.994704468176
49997.18545420515
49999.62234949971
50002.73423170855
50000.359923841155
49999.96942247183
50002.5006420619
50001.91668095273
49998.46916387649
49997.425468389156
50000.04353913846
49996.97174555035
49998.04818760721
49996.2875149107
49999.84385750169
49997.990914625785
49996.31018081498
49991.68870564514
49989.974393307515
49990.14798043332
49986.99615533515
49984.16963273792
49977.97928655855
49977.1213775406
49972.58770491562
49970.337044097876
49969.28025482539
49971.789517703975
49968.59669409694
49971.23379803377
49973.627040541476
49974.13257721048
49976.60644020771
49977.319769315596
49983.10152895889
49986.43943110626
49987.20331249483
49989.47497036635
49991.27762783405
49994.547211912344
49994.130734756414
49993.92651862131
49993.644285733484
49992.114827746766
49994.69887327772
49990.775564346935
49991.80583983852
49990.873723583936
49991.492006768916
49989.440427243964
49989.549845942885
49990.12962189268
49989.30972480343
49991.78686615273
49990.11724735048
49992.00662917467
49992.95911060396
49993.42170838233
49989.88496844433
49993.38524897471
49994.581974403416
49997.90607342835
49999.00775592025
49999.4505367738
49997.77419681078
49995.826051394455
49999.50359764339
49998.13339914819
49997.55871652402
50001.00134367871
50001.875712790374
49998.65545015385
49999.78282071255
49999.387804111684
49996.09273449579
50000.16559322209
49997.469758982996
49999.848236696904
50000.770246662374
50002.386206283336
50000.381747653446
49999.93446372333
50000.067673705715
50001.37986777669
49994.64525805927
50000.520629383675
50000.278231267715
49997.81842677743
50000.402212559246
49999.79357474796
49995.35983487821
49996.75539774324
49995.344767225375
49993.8596169769
49989.04975025439
49989.17218308763
49987.497300150106
49983.42814121658
49981.45525021536
49978.36925587841
49974.90557256078
49971.097283182986
49971.613811575655
49971.34671732323
49971.45552051967
49971.81542399541
49969.66266255062
49973.99791284545
49973.476485449384
49978.164388329555
49982.99823971801
49982.44552295655
49984.98912266092
49987.059694634016
49988.48795049549
49992.780786600444
49988.93069580206
49992.633310789795
49994.61850691848
49991.99010883657
49995.03723269775
49994.61031720706
49991.0257696311
49992.517154650515
49993.07143116466
49992.91770325248
49989.6946500884
49989.51038545534
49990.15439157649
49989.00445529241
49989.190440978986
49989.57947815162
49991.041525338456
49994.29223629199
49992.4212250568
49991.596163554525
49995.38873831766
49994.17397606301
49996.44536119204
49995.01968711354
49997.30766950127
49996.71644350048
49997.96748655047
49996.42007683436
49999.64099572428
50000.666153134945
49998.52785004199
49998.712837024774
50001.61575342775
49995.01316029599
50003.33333288591
50000.916725892734
50000.33627133456
49999.51041902884
50001.638410543004
50000.03298948679
49999.6482028483
50000.78044259366
49999.826460122466
49999.75903005917
49998.60392465832
49998.60290618557
49996.960721540294
49998.671727698034
49999.054496800854
49999.995931305246
50000.12193816302
50000.184780324824
49998.192228592336
50000.51735650752
50000.299075895346
49999.00505742051
49994.64653098835
49996.65213954416
49990.85710435977
49991.93082354799
49991.04678279422
49987.71531946351
49984.854521377354
49980.81624162123
49979.14708931893
49977.301449599465
49974.22317921873
49971.99542089548
49969.86986475869
49968.626737082304
49970.68982649893
49970.439888925466
49973.111390305836
49973.02235459466
49977.70428028025
49979.187629364205
49985.06269259916
49985.74278473607
49988.23814533188
49990.03662609825
49991.41914305569
49994.065773504786
49994.153842571315
49992.80259738076
49989.867576784134
49995.64301937273
49993.38662301464
49992.712184832715
49993.59818995182
49990.33106862963
49986.50517343911
49988.560932793065
49988.20382600513
49990.21314483791
49990.40266705075
49988.14505483389
49991.319235588744
49990.966106652704
49992.88720016081
49991.43615963147
49991.85952933351
49994.1372092988
49994.36042074118
49993.599172938666
49993.37217966225
49996.03552897818
49998.48380383645
49998.26968185568
49998.765502563416
49997.56968971593
49999.51401604143
49997.58437887569
50001.66532613774
49997.129762817254
49998.68584297508
50000.03401840114
50001.674946821484
49997.92336450752
50000.24247904066
49995.701793992186
50000.19587473388
49999.25255118056
50000.169998091595
50001.08192509774
49998.67458700134
49999.90910423895
49997.591652590774
49998.23227067572
50000.6215936357
49998.20878044269
49998.17263770896
49997.531986420814
50000.99622854755
49997.86485299076
49997.87335264115
49999.389771493836
49998.702943518685
50001.579679253024
49993.603097720654
49994.176058360885
49994.39947234935
49991.21227320458
49987.493644991
49988.28280680254
49984.18791977044
49979.916733371014
49978.083648951135
49974.17645359133
49970.92116928867
49971.771552744976
49970.36181305335
49970.420731983024
49967.34872462289
49970.457031978855
49974.74896585342
49977.30847799656
49978.149362253585
49980.81755519693
49984.51035794338
49989.25331311866
49990.40007083689
49993.16576322693
49994.59647745062
49991.78799851695
49992.24954917862
49993.46784862032
49994.36252465343
49991.97404247022
49993.60344057758
49988.90233732243
49990.320756800014
49992.51418760591
49991.92632184653
49989.583497346684
49991.46055704163
49988.98720418247
49989.23740068253
49990.749679270644
49989.450768588285
49988.65517874666
49991.27438383495
49994.39713730142
49993.80811725731
49994.71378981341
49994.848182827045
49995.709285245575
49997.76785517569
49999.26498964202
49993.76923325216
49998.433017630545
49999.06866197714
50001.564712516505
49997.487596480314
50000.237197205526
49997.321818044766
49999.497573550005
49997.33997954892
49999.98673543159
50000.234093183164
49999.84874952862
50000.670957880524
49999.764702659064
49999.12495341072
50001.45557981927
49997.67105669566
50000.27749274963
50002.11021831341
50001.28784221212
49998.47376090117
49999.92503581835
49999.61795774258
50001.13456194289
50000.725435743734
49998.4717500352
50000.218973272364
49999.083508711934
50000.319128460476
49997.32327807366
50000.513265500726
49997.150679905535
49995.462365819825
49995.96452772251
49992.7072629698
49990.93532014771
49988.23927257357
49984.84021671137
49982.71070141925
49977.019742558536
49976.70429471578
49975.13517007525
49971.01905597904
49970.44601094937
49969.70762929579
49971.204141515154
49970.29164028956
49971.42792338167
49974.42240923699
49978.94208566291
49980.92601677527
49982.671468983965
49986.2619942356
49989.10436625036
49989.700893538255
49992.6490044892
49994.020665948716
49994.068460701295
49990.935438158194
49992.393296518276
49992.44827193525
49991.04263189776
49993.09976145449
49992.368664996175
49989.90584148422
49990.07986036291
49991.52627183662
49990.10009934901
49988.6198337741
49990.913339755316
49991.90131495424
49990.836359738794
49990.90690506841
49988.307902537184
49993.85813281078
49993.02477023096
49994.33225460502
49995.19762440023
49995.17150292752
49993.866260923445
49995.9620596708
49996.9575345306
49996.00617034685
50002.07506389333
49999.75804920336
50000.493024522264
50000.821336190864
50000.32041847375
49996.97885508598
50001.38814478867
49999.0732621392
49998.661265824645
49998.51085665767
49999.69709788685
50000.684147598855
49998.16678245782
49998.83239558235
49998.591240775255
50001.01255834511
50000.91783749293
50001.28520489384
49996.90285671393
50001.22108220471
50000.29325704962
50001.48289002975
50001.1532362567
49999.38795415094
49996.971059723226
49995.97934514277
49997.60849073329
49999.84741300479
49998.130384118514
49997.10263202654
49993.52548517471
49992.23666737645
49990.51925139339
49992.641181826475
49986.36005731538
49984.42773355161
49978.71524915031
49977.58238771638
49973.74986837737
49972.365834256816
49972.619036773074
49970.976314998006
49970.1777505022
49970.440103776615
49973.94577681742
49975.96279383498
49974.68552861874
49978.95441358853
49982.24281335477
49986.98335781228
49988.69091203113
49987.679530390145
49991.7764328032
49991.64029958433
49993.857108158394
49990.5285422647
49992.3881839484
49993.258517915405
49994.86553003576
49991.531488321634
49990.10902702458
49990.43738173907
49990.35435628986
49992.359589317864
49988.544341046596
49987.86187956966
49990.41898730813
49993.425142711
49988.95697264006
49991.54912192332
49991.82110925248
49993.01416490399
49991.64272905184
49994.042309371616
49991.334990195566
49997.52189054815
49995.069222033
49994.46842146909
49995.373727192346
49998.18008166255
50000.8056665862
49996.142570270946
49998.59108184352
50000.15017811701
50000.07304812268
49997.88940021097
50001.361440560155
49999.049390777065
49999.833934214585
49999.11887577599
50001.80102503838
49999.8895650516
50001.4654355558
50000.94185112044
50001.22093469293
50001.47837534501
49999.45007981433
49997.621034770724
49997.24870465732
49997.13938181312
50001.33058438132
49997.558316777235
49999.09073506732
49996.81885701324
49997.424839978645
49995.72547079864
49995.753702905946
49994.23721406338
49993.76574510675
49992.98382047638
49991.181361122115
49984.800767780056
49983.48933846237
49982.665205374105
49978.1061590482
49976.635827828075
49976.28541635649
49972.39750859447
49970.227602334795
49969.57813091817
49968.929679876775
49968.74029328405
49970.57519342475
49976.28597825564
49978.24235914564
49981.76963279533
49984.89311589847
49985.631334560465
49987.036809461686
49989.82879458579
49991.77358158327
49993.50317786487
49992.57251930124
49995.18211064595
49994.16573141781
49992.93016459347
49992.742014502095
49993.464861407876
49992.199640883235
49990.00719907742
49989.51994720711
49989.97299340802
49990.555005783324
49987.1252950965
49988.71816840381
49988.65395085387
49990.23301516932
49989.69724993962
49990.4906891739
49989.94736830072
49995.49085530233
49992.887562970514
49995.24103792633
49995.911697606316
49997.722850615995
49997.64529413291
49997.00857304723
49999.53273130385
49999.40925834587
50000.784061934224
49997.61817600338
49996.63048396558
49997.734127924756
49997.998014581564
49998.541534046504
49997.68785447606
50001.69218685232
50000.9067350652
50000.26294906772
50001.24941849952
50001.5674475219
49996.85310170631
49999.455701791085
49998.639534142836
49999.976350201876
49997.540539863105
49998.142465210745
49997.792564552794
49997.56258441879
49997.351438089616
49993.58493787722
49993.54701876316
49989.03841534634
49988.54447028864
49986.58636052102
49982.293346262544
49978.39708338167
49976.54465695277
49973.86981427155
49971.43033879318
49969.39965593432
49970.18412661998
49966.49447991769
49970.05008939468
49973.97707769791
49974.411925924265
49977.69697625189
49980.80782759566
49983.472846326666
49983.217998495165
49989.71017559359
49990.52310474687
49991.21015529419
49992.46544330082
49992.193442022675
49992.079693662934
49993.96869627102
49992.76087247806
49988.676904703265
49991.74332495923
49992.33652493573
49992.019807814155
49989.51272596731
49988.75521716511
49991.828424456646
49987.65829374478
49990.011840554194
49990.86726143845
49990.434773012545
49992.5121137953
49992.176511679536
49991.71130561403
49992.16442376651
49992.01313719859
49995.771963537736
49993.69126973841
49996.30202194013
49995.753708571014
49998.24434254417
49999.59918442462
49997.854259033214
49999.52412481907
49998.42332524955
49997.91427528799
49998.16838844713
50000.90172199222
49999.24906683621
49998.51463734267
50000.91565697403
49999.577283850325
49999.26747334246
49999.78355635283
49999.72305583536
50000.28772803906
49999.767047738
50001.13701017716
50002.11575090588
50000.30099456491
50000.05731389746
49999.7768234099
50000.91292489364
50000.32786964618
50001.98298472748
50000.89800117472
50000.9197451726
49998.98091633836
49999.41662793243
49999.53775257871
49999.23042545141
49997.09957201628
49999.32512234744
49995.53034026215
49992.66022690548
49990.62544414836
49990.4350043178
49989.173981461965
49981.20724617709
49982.59636680728
49978.18787290832
49974.45727849462
49971.57623400865
49970.66290113168
49969.46441958379
49969.86848329548
49971.85773447871
49973.36403868013
49974.43986158855
49977.05510808458
49978.900855531
49984.465278895856
49983.560978999376
49988.5352579106
49988.35972681602
49990.57105019246
49992.61834293337
49993.90969626065
49993.53739644993
49993.52114301882
49992.216375895965
49991.41873983448
49990.57614669414
49990.20332983279
49989.612821218834
49992.26084318641
49989.65546625715
49988.727184941505
49990.42581885489
49990.3136893471
49989.824879235144
49989.578379896455
49990.1488615328
49991.9570740026
49991.68285350261
49992.20839961294
49993.51045813433
49993.426063089915
49997.28843045643
49995.645430871635
49994.55264318275
49998.65184435677
49998.91700873986
49997.1580996978
49998.56347705105
49997.5170788486
49999.427054448875
49998.283733377364
49998.90347161769
49999.784631781135
50000.26145767088
49999.38133902675
50000.96738076653
49997.40952487196
49998.17615598996
50001.25643334841
49997.045694567656
49998.54317695802
49998.80142900372
49996.806015888666
50002.50216635269
49999.07287772794
49999.24344553617
49999.11274771616
50000.59925331298
50001.7673741702
49998.812836005214
49999.219520227794
49997.68386501475
49997.8725288474
49998.07369841935
49997.258665633206
49996.17066753475
49994.06216813854
49992.83445523727
49988.76917706318
49987.53180081657
49983.28166977821
49983.754206441714
49979.41942256246
49977.039440610155
49969.147392219194
49974.0138101822
49970.10537112751
49969.25986447626
49968.95005283079
49970.31487141585
49971.34348336628
49974.53705006922
49978.92010497939
49980.947987554166
49985.11804125685
49988.9176352037
49988.28780576897
49987.86594874027
49993.77752121989
49991.85208742813
49994.45973280579
49994.85128551597
49994.574114609604
49992.698974935134
49992.611585732666
49989.77080076009
49992.09039221064
49990.2527102824
49991.68615467631
49987.827969115024
49989.754155676485
49988.82325512415
49987.11579980674
49989.39566601139
49991.200490371586
49988.23460197847
49991.51064079495
49990.80183115235
49991.54231230143
49992.62328979773
49995.09083267235
49993.97261468033
49996.81764750347
49998.76624868815
49997.892832089485
49998.66319211867
49999.68605346184
49998.13007582583
49998.41270503336
49998.45061458091
49999.01611253264
49998.71706221502
49997.988826524255
50000.106156134556
49999.275485557104
50000.527327663236
49999.54864211471
50000.8423172021
50001.2515584822
50000.53709729639
50002.04682142397
49998.540603851055
49997.7924335022
50000.040971392766
49999.26065321148
49999.486274782226
50002.01362299066
50000.94920287234
50001.716395238735
49999.87953333335
49999.71493639437
49999.288189621104
49998.876568237574
49999.30017574033
49998.16961461098
49996.127332950135
49997.78130078423
49994.4903260763
49991.40995710754
49991.93792988475
49989.338150921634
49982.78495760308
49981.34925524137
49982.916574649054
49979.19603495311
49974.68426690712
49974.01324600476
49970.14338566069
49971.37922528229
49970.74270068539
49970.829222756416
49967.91355867346
49972.92313210007
49976.687110290964
49980.62336730842
49983.860852706486
49986.37096026044
49987.43940605378
49989.56746441716
49993.384891605805
49992.723401259114
49994.35646400127
49991.71078469537
49992.74042654751
49995.14259255887
49990.590413830876
49991.635676558624
49992.98784464681
49990.045348531996
49991.081449620215
49988.609289612396
49990.21231457743
49989.335453823085
49989.35163305414
49992.04879363511
49991.92657088809
49992.71203999169
49991.63742335506
49991.30108340383
49994.24616599297
49995.17133575465
49994.27237320058
49997.00038908835
49996.08991985491
49997.361557022756
49997.23345145288
49997.06372140508
50000.2055345433
49998.83700935551
49997.491785439
50004.05100590565
50000.29561009294
50000.98400529491
49997.57980062972
49998.830787417966
49998.52809120289
49999.31215589479
49999.608454450135
49999.60638237418
50000.0065249829
50000.584907847806
50001.191001347564
49999.03134320582
50000.38817172967
50001.134990041246
50002.60112802594
50001.24758366036
50001.624568925916
49999.45243897926
49998.06180790251
49998.828262665236
50001.283369987614
49998.502401197504
49997.56883399316
50000.056751046875
50000.89849005228
50000.4517336704
49998.70693433664
49997.26566966408
49998.32880433035
49996.37676855055
49993.20218098091
49993.56090526422
49989.58419311446
49985.62916179633
49986.01091102581
49978.75328053912
49980.26979515066
49974.86378032933
49969.808532293384
49971.42565591737
49972.72161518301
49970.53261790838
49972.59478850973
49970.98768297702
49971.58324322259
49977.26938365108
49980.83414500719
49982.78164026845
49987.201722229336
49985.094826731445
49988.19626863542
49991.58290814558
49992.2739210409
49995.28378118571
49993.57735239093
49992.68630095459
49993.56350275171
49992.909042158186
49992.03131455356
49992.04253507575
49991.92463137533
49991.112849730074
49988.81578984777
49987.05470118652
49991.31124026935
49988.00916033178
49988.154807923354
49989.06936409443
49988.06464461564
49988.42531432856
49990.35857336876
49992.17032909955
49994.700998182285
49994.251828790235
49993.61427608895
49996.00365759546
49998.458338754135
49996.9889214604
49997.86216475347
49999.36555173669
49998.019995186325
49996.5570185995
50000.48635586344
50001.27726057749
50000.38626887751
49999.09719617325
50002.81035127529
49999.394853572885
49999.565201012025
49998.22471959857
50000.249907460435
50001.52704034086
50000.28402771053
50003.48074734609
50000.17368068988
50000.31731099668
50001.5360895207
50002.10790576424
50002.240127594945
50001.85003058169
50001.637724692555
50004.02247094259
49997.5121308231
50002.38239664307
49997.49743719237
49998.54385055678
49996.7383637684
49997.63271841789
49999.11276198358
49994.21573335219
49995.902968370465
49994.60946103845
49990.037401241876
49988.32982398698
49984.27126992546
49981.7399441823
49979.30693721588
49977.428212760635
49973.93950382606
49971.960611759896
49971.045607810905
49970.00619288687
49969.147235922464
49968.713336532266
49971.38602163184
49973.03420755983
49979.36570629652
49980.01618925549
49983.976493567396
49986.85197631685
49990.55887318539
49989.540561910326
49992.980443274384
49990.554185606095
49994.67458382059
49992.50621138104
49995.50040155043
49990.76945916063
49995.544881584894
49989.49597487772
49993.138682020886
49991.36528047112
49989.68555337946
49988.59722108737
49991.805558130516
49989.90465871971
49990.55463046337
49989.470882559406
49990.61291876292
49989.636631417845
49989.287062597316
49994.0734325605
49992.14222492896
49992.52808028018
49996.287692995524
49993.47735758611
49995.78068689927
49996.37735222838
49998.04922505374
49997.377319778345
49999.70965700125
49998.916698012974
49999.640666273044
49997.00485868684
50001.53080691065
49999.24018187476
49999.572416676776
49997.77680857673
50001.79312589437
49998.75982796534
49997.63321869499
49998.51845546727
50000.82848511445
50000.517865668415
50000.272448208656
49999.01105316544
49997.34767075964
50000.37011887898
49999.98364282898
50000.957253792025
49998.806812825926
49998.225568029266
49999.00374279107
49996.4579313505
49998.62011169492
49991.59361320364
49991.689630253975
49993.50958359582
49992.29478738758
49985.28444407927
49981.56175526429
49978.18039540317
49976.75649785237
49974.49605264997
49971.98316732964
49970.109814667856
49969.975218840846
49970.65838200304
49969.196071501225
49974.18831507657
49973.81550729865
49975.00087487942
49980.622635470856
49981.05306423051
49987.493079342705
49989.24674444036
49989.26716379586
49992.581802157554
49991.52984588952
49990.74100137427
49992.74187094691
49994.750991191926
49993.2137212235
49990.941678226394
49993.03551574599
49994.70495938968
49989.35919066853
49990.608639204416
49986.256067999886
49988.18970518429
49988.04938569213
49989.72227303334
49988.14024871793
49991.03414308671
49989.15114628497
49989.11549117471
49993.591894742516
49992.36132495284
49994.09978873984
49994.674671524495
49996.638152609274
49995.54001511652
49993.53188574949
49996.209351364676
49998.66364088724
49998.48458345896
49997.70361728171
49999.814748303914
49999.347912328114
49999.99646136808
49998.815904203984
49998.43976278281
49999.19034528598
49997.73066350564
50001.09413444578
49999.43343971319
49997.952210355455
50001.21516912879
50000.003562164995
49997.61556472108
49995.2381530428
49999.51086684615
49998.84437901614
49996.937756805884
49995.69470161701
49996.08612359242
49993.79902495387
49990.04599638363
49990.71515507278
49985.85972765555
49979.41983302301
49979.11358226993
49977.6769563507
49972.83098126642
49970.36645655662
49972.21115992667
49968.223037689786
49970.86337784074
49972.1461873322
49973.16496100357
49975.337928361005
49978.050017999114
49978.834363365255
49981.47407746464
49986.9520225803
49988.41754865756
49987.84389486764
49991.41894838329
49993.62525711475
49991.517840482935
49994.28897984316
49996.94094263445
49990.63904441996
49991.844636508285
49991.73265470703
49993.57721223472
49991.23891155672
49991.81240687592
49986.54916424447
49988.58014125776
49989.87214618384
49988.00976340059
49988.724790729815
49990.24788805521
49992.79005201962
49993.75511218014
49993.042694326345
49994.2975107105
49993.878569195454
49993.91942843052
49996.29318580147
49995.46673884147
49994.70101275682
49998.48515452014
49996.82993811154
50000.48725105022
49998.91859079644
50001.252815874686
50000.26421190058
49998.053749681545
50001.56567926233
50001.043134678854
50000.03378633994
49998.39642532623
49998.93278451904
49999.81350488511
50000.47120016576
50001.82292092768
49998.99526748594
50002.263770762576
50001.197070172
50003.3226110939
50000.91056116663
49998.9899356154
49998.556780973355
49999.64764472317
50000.746341819206
50001.36759786314
49999.567480605336
50002.93187785717
50001.944984512134
49998.76635788661
49995.75935568519
49999.25841798972
49998.434653219134
49997.09797815513
49997.72682660749
49995.896654449876
49993.515527942116
49992.9774284204
49989.90106513825
49985.35050453989
49982.947256016385
49980.61658124296
49978.42596279233
49972.2004633308
49971.83380737674
49969.247439046456
49970.05402551959
49972.87873597457
49969.73624019948
49974.24179632298
49972.62611499203
49976.33091920538
49982.937385803474
49982.054997029605
49982.22130370383
49989.7710023976
49990.4431446833
49988.515310324045
49994.42769677786
49991.672658838135
49993.49941994335
49993.62734524869
49993.399860981604
49992.224402549655
49992.24911428812
49992.137183383995
49989.72541281646
49990.79873318204
49990.69319100613
49986.40996103662
49991.75482880746
49990.97086876812
49986.91580193301
49989.665548395074
49991.98323429137
49988.50413409703
49991.05022691528
49991.21991075234
49995.53420643483
49993.05559491148
49994.65757221224
49995.05984938705
49997.533198108686
49997.28867829095
49995.14546513512
49994.94337400435
49998.30126509908
49997.59738687397
49999.81954572188
49998.55214523951
49999.928331941795
49998.27714165703
49999.87347412288
50000.067022247895
50002.223395462104
50000.35190024604
49999.45741316366
50002.084181886115
49998.347523109805
50001.27934094885
50000.64072998941
49999.45124089176
50003.52129603544
49998.01838627434
49999.6044724174
49999.40668126046
50001.58897993463
49998.19954314992
50001.719276296826
50000.10821869125
49998.15604664438
49999.34147244499
49997.22111628502
49998.98305745228
49995.0768887753
49996.97722509209
49995.92544561797
49994.29281187825
49992.07842142006
49991.25367024066
49988.27952442654
49982.32596499783
49981.750159057214
49975.85074114908
49975.88791733392
49973.40287785663
49972.009180103916
49972.110883120826
49969.06398378158
49966.690851816275
49970.74164589476
49973.236289820416
49976.38651168154
49976.033336797824
49981.545415862936
49984.5374428886
49988.20229980484
49990.617460964604
49992.877995546194
49990.93207049738
49992.4661991068
49993.26412424183
49992.63203438752
49992.960973380665
49996.028380154174
49994.16837956402
49991.930246722935
49988.496269436255
49991.783932613245
49990.355132137076
49988.40616431582
49989.640295245794
49989.479673076785
49989.685484823065
49988.49190005792
49988.98807478123
49988.15992852982
49992.59132956121
49991.29083164854
49992.76309294215
49993.14992467424
49997.90994374807
49994.28890788753
49995.51092078867
49995.102151927706
49996.60011826478
49998.011530619675
49997.63159346423
50000.81894480177
50000.00000443458
49997.1513633049
49999.87655799392
49999.37594172769
49998.63162916009
50000.771850375815
49998.754705717925
49996.512521743934
49998.53179920369
49999.12799378392
50001.991279207665
49997.43959362069
49998.7099163254
49997.5818960264
50000.51107643086
49998.38844831217
49999.859788040274
50001.321970206
49998.40110699933
49998.21639551558
49998.36551149452
49997.75784635061
49996.800194851676
49996.421763190345
49995.625384863895
49994.979344350206
49990.83746855196
49989.69590542313
49988.66460078295
49983.1156885784
49980.80047310198
49977.151007420594
49975.66143511672
49972.425037270965
49970.54746778391
49968.78630687713
49969.450825498105
49971.36083554578
49970.84315278753
49972.526266921646
49977.98073396826
49980.3089012427
49983.42624861411
49983.5147159009
49987.784555563485
49992.78350621965
49992.470165782244
49993.27274471103
49991.859280707904
49993.08592436686
49992.79604239181
49993.536390983296
49994.77640803024
49993.376705024864
49990.4601740854
49990.493299965165
49992.285653756604
49990.63379786685
49992.92175574393
49988.85401935621
49990.03138624822
49989.036533646075
49990.73076790791
49988.54295770105
49991.838941509945
49992.97817122818
49992.60116825528
49994.40571815277
49993.761847277994
49996.00040068861
49992.74203296166
49997.363666561585
49996.91743536743
49996.30284318213
49997.58735731449
49999.44275370871
49999.13028571671
50001.54884801287
50002.626475212404
49997.28483185849
50000.196967798
49998.68937826709
49999.57327995366
49999.345148065295
49999.31901064712
50000.180350030714
49999.3613471668
49999.82345509634
49997.62121424082
49999.74625274454
49997.537591173736
49999.68954029279
50001.1194819132
49996.71297461614
50001.361922340104
50001.51963191856
49999.839619023296
49999.91457401856
50001.40385402166
49998.554327833524
49996.905416550275
50000.80141799392
49998.34068261737
49996.27021796718
49996.488928024904
49993.574129558394
49993.21788219709
49991.0864610202
49987.72869070932
49986.05610101803
49979.19579388197
49978.84328569759
49973.92129239204
49971.707461723134
49971.49386320901
49971.518752713084
49969.025081970176
49969.78502309785
49976.59600860842
49972.42787442678
49975.05423872074
49980.81467089593
49980.20365662902
49983.96168774145
49987.42016475644
49989.654079413245
49989.941665195576
49991.17206504671
49991.90623216299
49993.443228355245
49993.28847008953
49991.983909023416
49991.12554642034
49991.283316018824
49991.52905151066
49991.23114458692
49991.66593187106
49988.87574504466
49989.02584571305
49990.122436374724
49987.80967385264
49990.11134050494
49991.438131069684
49992.39377042167
49991.23454676877
49993.23056347674
49993.77191663348
49992.184021467365
49994.87827280991
49994.61622605029
49994.038432699526
49996.94501684521
49995.750480865834
49995.92371911919
49997.99931645379
50001.725464446004
49999.324634276934
50000.953083960194
50000.35888930519
49999.32512971495
50001.45863277029
49999.36667500635
49999.63464732753
50003.83159157045
49997.92551084849
49997.84844855259
49998.73446996341
49999.638893632844
49998.26790710173
50000.770319959476
49999.615663469
50000.115200065346
49998.31796984212
50001.22066092683
50002.64409677041
50000.23541791543
49999.637462419974
49998.275444277635
49997.12952699386
49994.85184098656
49996.03248538529
49997.63231009419
49992.00110992208
49993.97767626076
49989.93089492574
49985.6432552574
49983.25902259535
49982.79874746605
49976.31560387827
49975.95193670377
49973.51680447654
49971.75486561401
49969.74307214364
49970.66009851753
49971.16821055897
49971.249511569986
49971.81170517995
49976.52847959628
49976.602603608044
49981.3787136212
49983.22281690185
49988.543886503656
49990.14071305521
49988.01719967042
49992.305028111536
49993.3643331972
49992.959021643794
49992.15215611578
49990.622876777765
49989.763587590074
49993.01923237134
49992.00008300388
49987.86391921873
49988.564752398284
49989.14322407346
49990.88757039296
49990.72342916258
49990.321684054856
49987.97563204975
49988.93781035666
49991.25765347278
49990.615714415384
49989.80744190849
49991.88156957489
49992.701962820196
49995.70806416306
49995.82831784732
49997.860750424334
49997.3734232233
49995.885740508114
49997.94556099676
49999.49466994372
49999.59914298583
49999.054749751136
50001.60085644375
49999.180571960955
49998.861140037814
50000.73913793971
50001.19939828828
49998.698587551975
50001.30236392054
49998.003368184785
49999.91113380179
49999.24462284084
49998.460174897155
49999.95563722353
50002.10698094422
49999.15631796713
49999.78788619551
49999.560293023016
49999.37247665185
50003.27293433588
49999.361584385515
49998.21624068365
50000.09570299656
49999.349442549414
49998.06461979379
49995.07691107334
49997.403535309655
49998.08994649609
49994.10144476794
49993.83568470561
49989.56249277505
49987.356834224105
49984.02063290435
49980.08887421763
49977.41794413134
49975.31309368915
49971.971630138265
49972.01747813871
49971.50336735127
49970.67428343169
49970.86935731926
49972.59875331052
49974.690098797546
49978.02057703143
49976.08989194541
49984.18081643771
49984.357299536445
49990.356714700196
49991.460787868746
49991.16784600368
49992.40145701418
49992.11417605835
49994.27740952501
49993.01734552821
49994.52910224971
49991.77370135504
49989.04878249018
49990.75374064325
49992.58339437135
49990.216051933145
49990.35804481392
49988.205633160745
49989.4895577368
49990.2513966652
49993.580485525774
49990.05860112911
49990.1163271555
49991.135655897466
49992.36256246166
49993.293146113465
49996.292120042766
49991.90053302448
49994.42175712505
49994.77359520338
49995.984971668244
49995.2114437999
49995.766907758356
49999.48148578242
49997.67233839257
49997.450849087945
50000.78287109319
49998.73676677835
49996.267851154786
49997.91576546697
49998.08254533295
49999.05152557922
50000.40052012075
49999.28397314206
49998.716530046884
50002.107377240885
49998.93026376
50000.95070036465
50000.38751599889
49996.69575961978
49998.32655162213
49998.85380370338
50001.062279774414
50001.376607779865
50001.17296361759
50001.0104389829
50000.27672079621
49999.26873296619
50000.89225552983
49995.71620150986
49999.65602645124
49994.56179548949
49994.13967299695
49992.10489895944
49995.65574074932
49991.60804358315
49987.43526519732
49985.71438665666
49980.408055483844
49978.74240831683
49974.876149613454
49970.93140252829
49973.58837267161
49968.824133486705
49970.97344244224
49969.23122121967
49971.46854347963
49975.254532532745
49975.16582221618
49980.39591408329
49982.30187693065
49988.56880004749
49984.8633474395
49989.406777310476
49989.98984162724
49991.15503869591
49992.06869761528
49991.59120907228
49995.27368002465
49997.22441171155
49994.16594861527
49988.915226967365
49989.51527348432
49990.244970285625
49991.227735898465
49989.92655747728
49989.19508918213
49990.98602031274
49991.481610431496
49992.186968667665
49988.76582543556
49989.267651337395
49990.59437165535
49989.424043342835
49991.92560536986
49990.688910697936
49992.720772509005
49995.930599908694
49997.09055646854
49996.46091286184
49994.6813290318
49998.08554464707
49996.70993701975
49999.08091503101
49999.001524825166
49997.77729977808
49997.79561912563
49996.59527835108
49998.69067345479
50000.89541671123
49998.95235952783
50001.41841036198
49999.168477966654
50000.56209842992
49998.35597008656
49998.37246137061
49999.33236692463
50000.78693291672
49999.06031150904
49999.40225332249
49999.75556829561
50001.97684922619
50000.92305412693
50000.27287566182
49999.04659602038
50001.70793494378
49998.63774498864
49995.609198049875
49998.26941310935
49998.019017449784
49998.472524189805
49998.23253893397
49996.66055892765
49992.62184758799
49989.24734468847
49987.368433453485
49983.7703251316
49983.890131278975
49981.842865199724
49976.81297743675
49974.05434543243
49972.60764342358
49971.37548121947
49969.704017578406
49968.28216535276
49972.82016506506
49973.83331299766
49975.595617115185
49974.412205593864
49980.024656685586
49982.67553107438
49985.3520323321
49986.99897240219
49988.876494487144
49991.28952746916
49993.512758665376
49992.28060806132
49995.24897763386
49992.52263581378
49993.52793328408
49989.24203495408
49991.664215434226
49991.437086330414
49987.52920685562
49990.367212371355
49989.242321384416
49990.09480757864
49991.1772738369
49989.157582936605
49987.13717138564
49988.99081358195
49989.53002886193
49993.65732108786
49992.19417159261
49992.807727841086
49994.12395341069
49994.10453840831
49996.90489778133
49995.16150367386
49993.05448898744
49996.02149158863
49999.30093640612
49998.42082187662
50000.66906377277
49997.94193800214
49999.42956561732
49997.09432285214
50000.5190420809
49996.491755393
49999.59394499213
50000.3553160727
49998.98308124659
50001.62555238978
49999.519727196086
50000.94652927368
50000.755794841025
50000.882640223455
49997.34661867072
49998.792571715225
49998.80831595987
49998.163639643775
50000.99331368699
49999.01908937945
50001.225963138495
49999.474392237054
50000.8391653292
49998.505452906815
49998.383672173215
49999.68816252073
49996.0715631476
49997.29977094045
49993.69260066521
49994.599616134736
49991.45793370126
49988.005980245245
49986.4439187679
49983.76795262565
49981.13527012215
49976.07979792719
49976.60890720528
49974.09847967648
49968.0309034942
49972.0393555571
49970.90610239108
49968.38399422867
49971.42315222732
49974.998706706196
49977.321849029126
49982.3056582167
49984.34786668582
49984.50751593157
49986.335841204665
49987.21983201366
49990.402283689946
49991.14987034628
49995.18469001174
49993.757951095016
49993.554390141646
49992.31707651014
49990.84935653696
49993.708247191
49988.621883752516
49993.055443985395
49990.689594142204
49992.45747353562
49991.15344855083
49986.96389299297
49990.51359991807
49991.27361438723
49991.4563149586
49990.71850192639
49989.9743749457
49989.985765273435
49993.233583866095
49991.99882449154
49993.6369846284
49995.434675697325
49996.25538714356
49994.96325632408
49997.52681418242
49998.92160969929
49998.978667272124
50000.104067381326
49996.58678225628
49997.72408187855
49999.619750019
49998.44016534926
49998.7387716172
49998.82628063145
50001.421697017715
50000.108545804906
49998.40955053657
49998.79963881307
49997.921049317825
49998.55219936977
50001.28054031672
49998.93013482125
49999.42834651004
50000.14578231835
50001.010102205386
49996.97430643193
49999.66697527949
50002.016723311426
49998.47556383786
49998.89332108542
49998.66411369615
49999.179760717794
50002.18986385797
50000.32824793801
50001.71426157685
50000.58604102408
49995.08540626415
49995.48794674735
49998.283482372695
49993.89486883555
49993.82494244493
49990.844544509484
49988.08262732613
49987.15480856686
49980.18675963505
49978.79561421067
49975.89193970781
49973.56476807652
49970.38279901737
49970.201100322614
49967.03101667219
49968.10146620094
49971.784421418415
49973.39606550351
49972.10262063065
49976.24967012502
49979.78249094707
49983.47714200602
49986.469948197206
49989.5647609981
49989.39976147413
49991.820270653545
49992.961079452114
49992.81422794891
49993.87297947929
49992.54959854123
49994.24471693155
49993.3599326373
49993.68555554498
49991.5397774561
49988.03433642439
49992.2390434391
49989.895700725596
49989.70267360746
49988.756686496185
49987.891920532405
49989.7176964813
49988.875945894666
49991.132451696474
49990.051165131525
49990.704798498424
49992.76193002122
49993.13079249556
49992.65268709251
49995.12553987631
49996.93533969384
49996.18798219965
49996.29464017273
49999.33457533698
49999.49270534746
49998.35343912661
50000.190663029956
49999.45673941503
49999.14200598299
50001.356898000464
49999.31381202476
49997.00973215088
50000.16971458249
49997.96555405451
49998.93104169772
50000.95554540272
49999.19038842335
50000.510423756285
50000.12367271445
50000.57534715237
50000.99261970746
50000.40720037564
50002.0395321001
49997.26041209521
50000.07729538705
50000.87738940744
50000.75930770331
49998.8545674013
50000.526962213546
49999.98678595759
49998.583075078495
50000.275725195876
50000.15539418556
49998.46036466827
50001.102310831055
49998.74822432878
49998.01520847988
49994.58596391467
49997.38404765986
49992.302023846605
49989.85855524776
49991.26169002319
49987.62693117985
49983.32011800907
49977.915384200984
49976.00937397963
49976.475736252025
49972.417169576016
49973.58483569152
49970.03156841395
49969.37777737196
49973.31087003205
49972.15311245945
49975.13125994924
49978.19692290088
49979.75702262935
49981.70948126331
49986.60261961456
49987.44669743495
49986.538355383025
49994.59532895929
49990.17033895953
49992.01598337157
49993.565687016475
49993.60864700536
49990.64890101318
49994.037224013904
49992.25897348937
49991.84310286838
49993.401948609375
49991.6723752721
49991.186951645934
49986.590663915405
49988.495276231624
49988.660890394756
49989.62566023803
49993.137820962314
49988.2445793013
49990.778158898815
49992.01144590626
49993.61162583933
49992.44671980035
49991.151201291796
49993.89928254833
49995.32020733232
49998.32976723978
49996.45073272674
49996.369229296535
49997.19672773908
49998.34855774652
49999.43791574379
49996.04842921173
50001.679704306895
49997.880664710654
49998.37529494926
50000.145979039065
49999.974521922595
49999.447253915656
49998.872076944775
50000.08568651321
50001.3921118991
49998.52535843351
50000.83950136419
49998.59138555912
50002.6238413821
50001.657109237516
49999.56418853935
49999.347001530856
50001.052904201235
50000.42265690443
50000.141439528394
50000.689205823335
50000.6845674072
49999.75591554902
49997.85544242472
50000.51448741288
49999.71820226669
50000.81429542699
50001.51341927229
49999.63611141633
49997.802930280304
49996.72395983367
49997.57122796046
49997.8125247298
49997.5591550792
49996.40179882297
49993.15520190458
49991.66579502135
49989.71260432723
49987.185233819444
49981.797140229246
49979.81527155884
49979.05427811998
49978.4901095343
49970.078904029244
49972.66156856394
49970.75052471376
49966.72825088245
49970.97829816088
49971.51386399345
49975.310134517975
49976.18297327124
49979.12410824428
49982.185189976786
49985.21600015102
49985.710691027605
49990.22502054051
49991.79037672218
49993.69462405038
49993.030126013204
49994.28831304045
49992.6430582553
49993.003492445896
49992.190264747536
49993.11734535826
49991.68511162492
49992.52741122749
49991.733897722705
49988.39188347532
49991.70881178569
49988.5315099059
49991.75779523296
49991.75853477145
49989.70608616554
49988.39147803141
49990.08508642796
49992.71896007535
49992.48035568071
49993.42658224478
49994.83834544626
49991.37691967834
49996.14855057013
49994.87265784261
49997.65718239531
49995.53388285205
49997.594560782345
49998.61062082521
49999.112154375616
50000.35869813928
49997.39250387232
49999.3821572012
49998.19079885135
50001.33747725923
49998.84781620274
49999.297004832544
49998.519283709174
50000.87763859902
50001.75844194697
50000.69663777342
49999.639278499744
49999.39969804789
49998.85300087183
49997.779402461274
49999.670607413245
50000.444568101004
50000.99845688524
50001.68296502527
50001.00992576336
50000.28154352846
50001.84619803532
49999.32479811687
49999.0713664417
49998.60395165024
49995.55781378233
49993.3027443614
49993.51293604761
49993.560247256944
49989.87431001311
49987.05473195398
49985.88217626925
49986.172991221625
49981.423778485805
49978.00261409076
49977.107538713164
49973.41098795831
49971.41001616727
49968.24934962222
49969.49714359811
49973.57597360336
49973.14773122088
49975.25856332467
49977.704181639456
49977.90710328925
49983.50999283115
49984.627461527714
49984.12125703463
49987.79190213684
49989.01912690816
49991.982188171416
49994.194111043646
49994.44278275971
49993.698867718194
49992.20774508147
49993.06517542391
49992.43670154719
49989.72075983146
49989.56921384707
49988.09314648439
49989.21923665891
49990.17894162701
49988.49012952314
49989.95741658252
49988.97586880626
49991.58444349733
49988.57050591988
49991.685815288365
49992.477060326404
49992.900529024024
49994.019414263516
49993.67026099999
49994.269568373995
49995.43007929554
49996.435664416465
49996.71095013785
49995.205726146545
49995.23387129455
49999.821181433195
50000.80515617473
49997.2177217136
49999.47830709679
50003.109854619885
50000.213038560374
50001.19747423899
49998.7596024938
49999.41041526474
50000.73682061831
49997.00792542157
50000.72057104909
50001.961417421495
50000.37704539257
50000.69088987579
49998.744625286636
49997.85910278688
50000.23128208884
50000.09677270449
50000.872560441574
50000.179643958065
49999.96714386021
50000.253070451414
49997.51002377419
50000.93731474955
49994.87151608809
49996.249270685876
49993.24225829079
49990.646115733995
49988.36209590512
49986.59444793347
49984.626744341156
49979.57308289489
49977.10674058277
49973.14777191832
49970.177712080585
49968.881832462
49968.17047294303
49969.84668215584
49972.98106691322
49974.056062583935
49977.95275519158
49977.77120282135
49981.49837120536
49983.63419185355
49985.133668636394
49987.8048066401
49989.09950946282
49992.97868580139
49993.17283493159
49990.66345926448
49991.04172257389
49995.35795400402
49992.95815762401
49994.73280919247
49989.44759087302
49993.76701680565
49989.97340565489
49990.113751701574
49988.45977684093
49990.81827066005
49988.53584673584
49989.49379613978
49993.92045708926
49990.63844888108
49992.61154026053
49989.73888492194
49991.247681297165
49991.450521854575
49993.16406834937
49993.89060414147
49994.35577117004
49995.2187199582
49997.42659258033
49996.05099703062
49994.14000949083
49997.22733338934
49997.52195295643
49999.27826979024
49999.460544433125
50001.812011941205
49998.1721898253
50000.84605176747
50000.541348716324
49999.03481935203
49998.92146904329
50001.154429419985
49997.07193759388
49999.14629033788
50001.90039644564
50000.04438291553
50001.85389792728
50002.957090508506
50000.820230832156
49997.62879446275
49999.48791702196
50002.05897228656
50000.33008616549
49999.077546983935
49996.51083885623
49998.39580007968
49996.569727686525
50001.138349656176
49998.35623934042
49997.03611058445
49996.82528713555
49993.85458504291
49990.82763972279
49990.47758994565
49987.12417043742
49982.011628697976
49980.55193860176
49976.5790213791
49974.209500136494
49975.11677181718
49970.21760844507
49970.12064853632
49969.97281198104
49968.92991000285
49971.994522551584
49975.190634595165
49976.600253085504
49977.20275958368
49979.88796576609
49987.7170411136
49987.123573330005
49989.38638143704
49986.025358158935
49993.03423553821
49990.960523940375
49992.38113737061
49992.32651898767
49992.48934091354
49995.28523599397
49992.12102707276
49992.496020175815
49991.66600588103
49991.24408439507
49991.07735322251
49989.69267606923
49991.46867879553
49987.638678811425
49986.83708796741
49990.233832711994
49986.78276282666
49988.69685109246
49987.60670392289
49992.17215444094
49992.46228293198
49994.99869903734
49994.832600713984
49996.74354186186
49997.692691294265
49998.95927420077
49996.132880630474
49999.20610348268
49999.49717397577
49999.900353758516
49999.938348795054
50000.52276089794
49998.48392774506
50000.42349373719
50000.77340580044
49996.59743226777
49999.2012101452
49999.78176293995
50000.71540742835
50000.30233280475
50000.29915867819
50003.60744166546
49999.126050811545
49999.67759372216
50000.9276384281
49999.45181938847
49999.63588654393
49998.83697518921
49999.7956620293
49997.57303041857
50000.418363267294
49998.40944389547
50000.82003768914
49994.78824584943
49999.66842378392
49999.89381665253
49998.27076102566
49996.73649515403
49994.45838481873
49995.43589842784
49992.38418713264
49988.96206262986
49987.37257626941
49984.81071318475
49982.73246389414
49980.62737408413
49976.83258788128
49975.26963895058
49972.16583743453
49970.360810689715
49970.81612902186
49970.815048962824
49971.483633061
49974.71637959043
49976.96941075699
49978.33407222491
49984.057843362156
49983.39463593875
49987.06669105549
49989.25679359105
49988.18530791046
49991.817154413235
49991.86567348057
49992.80653998463
49990.5486856317
49991.99759775052
49993.806641850184
49992.964405034516
49988.71161364275
49993.5805835081
49991.37711638289
49989.58847827511
49988.55357937337
49988.81025671985
49987.69771499928
49990.6588648103
49991.5448316912
49989.98703214338
49989.39595755848
49992.005462354566
49992.90470164379
49991.54226668947
49992.19070791683
49995.51570701456
49995.18852318967
49994.487314397855
49994.375948639696
49993.15541739582
49999.36882358323
49996.1490298467
50000.866459295365
50000.01073461729
49999.956705679695
49998.76954574925
50000.0332483347
49999.09585888155
50001.43248018444
49998.9356490392
50001.05855121436
50001.056345167315
49999.73946273901
49998.97920925729
49997.94361329802
49999.71729974096
50000.748108354455
50001.04322087114
49998.04095876625
49997.102274919656
50002.9362720376
49998.68865106522
49998.842625286336
50000.04854541427
50000.47342934172
49999.52271974355
49998.903191097685
50000.804621904725
50003.16327623752
50001.489965055465
49999.666724911
49996.060415479835
49994.564974761844
49996.391844362224
49997.06517755555
49992.06273193286
49993.63726506254
49990.64607172444
49988.53481814847
49984.40363853681
49981.014169695656
49976.6195668333
49974.24575385499
49971.76012065677
49970.02251427909
49967.49567585658
49970.17012610772
49969.17516072874
49972.395924346136
49973.03218970223
49975.69677302535
49978.29625518692
49981.516000946525
49983.356713196496
49987.28882418404
49991.47874138787
49989.7086233418
49991.731898463426
49993.070215072185
49994.5590726824
49994.89221240416
49993.27657106999
49991.83452796048
49991.65967727576
49992.90396451515
49990.9558576104
49990.12767663946
49990.39261856519
49988.84890712337
49985.476322746246
49987.447690975496
49992.94708571698
49989.45514890495
49989.672133680135
49991.48688605862
49991.30316187613
49991.01749674315
49993.643156233455
49993.1921110371
49994.32226839626
49993.98564046953
49997.79322794121
49998.641820269884
49996.80906474745
49997.01813794878
49997.36448092022
50000.670086089136
49998.467150070144
49999.59966157736
49997.47080246849
49999.59099720451
49999.5755638013
49996.24602244592
49998.708498222804
50000.58157640319
50002.13257452205
49998.94507110433
50000.218505163386
50000.356552040954
49998.64958637502
49999.31558161244
50000.844105049204
49998.674501824236
50000.96238518103
49999.863531857496
50000.42293902183
50003.3246529832
50001.30041644781
50000.79511244052
50001.81848010005
49996.79891903926
49999.823385565025
49999.36125557271
50000.72373038654
49995.903939070544
49997.29657546899
49993.707233677655
49995.44909849884
49990.95140185979
49985.79244196601
49988.17977107916
49984.194488285146
49981.41186899226
49978.92035750876
49976.25541737588
49974.20175444007
49969.73997518085
49972.08532296264
49970.31676607084
49972.15183236634
49971.12161659509
49972.30626190788
49974.25420682841
49976.60777861162
49981.097448116176
49983.48376509272
49985.50894552972
49989.20783846251
49989.69449880025
49993.00020298344
49994.6727608419
49993.9417505646
49990.93451340252
49990.90904296597
49991.27672599926
49990.57225663588
49991.46139294044
49995.046627382246
49991.65777791349
49992.19456127626
49986.93409508885
49990.98519719841
49987.88704113783
49989.00044740497
49990.585224073686
49991.57779823556
49988.668848630245
49994.28560150097
49991.394121686295
49993.7814870719
49990.57224449822
49993.267787437784
49996.2921456594
49998.34235407426
49997.463691629004
49996.56186721946
49999.16088064777
49995.24721841705
49999.30861120099
49999.71325706567
49999.777166902415
49999.55197853522
49999.66166583554
49998.58729128337
49996.95628892993
49999.71243002128
49999.37754880351
49997.54168704789
49999.21226045361
50000.511820145584
50002.98658538299
50001.29372407556
50000.39265872746
50001.32294015308
50000.36997002779
50002.14680057762
50000.31190493104
49998.76186101215
49998.90302539729
50001.40168473765
49999.62305640072
50000.218306020404
50001.01295783906
49999.28802158721
50001.08309564665
50000.55879928256
50001.39546656178
49997.86901492119
49999.99256822813
49994.565851377614
49995.12695354548
49993.69360223266
49989.25559270698
49985.10635449103
49986.83204930923
49982.3035367054
49980.73529363209
49974.522690891026
49971.65953166375
49972.045145729346
49972.80635011942
49970.147501182815
49969.73204874257
49971.25817638713
49973.35758070745
49973.82684157337
49978.330593797196
49982.10799426438
49986.90655203332
49985.70313216828
49989.61296148378
49990.46524735106
49988.74290494085
49988.52447645156
49992.15224637221
49992.70565415634
49992.82203740688
49994.46641338768
49990.44732999648
49994.86949559239
49990.81282783408
49991.108248346085
49989.73018310779
49989.394841146546
49988.58940139988
49989.30169858111
49988.21114898488
49989.711835639195
49991.800480245576
49991.23441701909
49991.656896311164
49991.960013361626
49994.58964237099
49992.474754822666
49994.57036159174
49996.19444643611
49996.505865227366
49997.61870000046
49997.23738562394
49997.27774409003
49999.16093542151
50000.567168113135
50001.18232371655
50000.9134298631
49998.62117809051
50000.56621713138
49999.623927487875
50000.42612541351
49999.24270482261
50000.03855900201
49998.79227508235
50000.25174396626
49999.93812151855
49999.27981675345
49999.82134358862
50001.15476133911
50001.34320065453
49998.558688697456
49998.664271299815
50001.58470831759
50001.4457107763
50001.426697972645
50001.47053389475
50000.62059216311
50000.873224787996
49999.48619280903
49998.801888278016
49997.13829175438
49993.965591277454
49995.00566267484
49993.04945821503
49991.37649860512
49989.8806870337
49985.961036205066
49980.68159001993
49978.22644941082
49976.87905197812
49974.00216315055
49970.65553511576
49971.72467335804
49968.01299071516
49968.02184282281
49969.23117137215
49972.45718529488
49972.74822434941
49976.92232534893
49982.7976321492
49980.75765963508
49984.52349405904
49990.72527979085
49991.53316132153
49991.70523654649
49990.32793094929
49993.89150571167
49993.87386816677
49991.26571505313
49994.57383211011
49990.67375737126
49988.636345174644
49993.083129203565
49993.01024513559
49988.722579498266
49989.48357574964
49992.40607300676
49989.24980253239
49989.400883836985
49988.89010213276
49991.44969961181
49991.18611165594
49988.86087964088
49992.85667495791
49992.993513832786
49990.59964352662
49994.63549861157
49994.525525458914
49994.345047354676
49995.13667602943
49998.61173473315
49998.31138505574
49999.880343542005
50000.16529458437
49997.69945531611
49999.153068055675
49996.459330395955
50003.13287566999
49999.4892823675
50000.24665116172
49999.491362760215
49999.654377843464
50000.4239921188
50001.187785013266
50001.97210144628
50000.559808444385
49998.88304190739
50003.01327785441
50001.19305362317
49998.92569820515
49998.66984060816
49998.86061873848
49999.68501975303
49998.35818822403
50001.8834935356
50000.919700661536
49996.5227019917
49996.62744560551
49994.8558912217
49994.60080147648
49990.63037959512
49986.06913097371
49983.4925483998
49982.2632992438
49979.46209950559
49975.13468972409
49969.84224487834
49970.95622468926
49970.21639596499
49967.46950466284
49969.961608039
49969.25654766344
49973.76790632934
49977.13756180887
49978.38182178859
49981.10345316869
49982.91247558083
49988.426113386486
49987.651576163604
49987.73071518499
49990.14564983435
49992.98573020515
49993.5690463013
49991.03905435479
49994.56140423042
49991.16496801923
49994.08481946192
49995.73518645316
49989.91009770354
49991.12825238641
49991.67294608353
49988.61154347664
49988.80570593151
49987.89511477377
49990.33940109788
49988.55055118481
49990.32206747753
49990.024918005416
49989.732118291795
49992.486507106696
49993.37799951345
49995.31377885697
49995.69235174669
49993.82853385716
49996.40700109741
49996.95876625346
49995.252271781246
49996.7391736408
49997.42633523229
50001.41471311701
49999.109412683945
49998.443526886236
49997.483247331555
49998.880939148825
50001.2765680651
49999.53804044581
49997.42651680328
49997.965359234404
49997.725854841075
50000.9155514637
49997.858321421045
50001.525340447944
50002.33755721561
49997.79325119062
49998.70886423738
50001.50139295943
49999.762261419084
49997.374996469065
49998.95428670781
50000.43742146073
49995.406919117435
49995.07599515335
49994.67171655404
49993.70460420418
49988.005313205744
49987.78021001803
49982.79183249382
49982.158219033015
49976.438518498435
49977.17363428084
49972.87708469944
49971.74644761959
49970.52555072922
49967.5472795003
49972.784170927414
49970.504772694236
49972.677192651245
49973.923759553945
49977.70019233751
49976.24691773366
49984.34479714219
49987.246131977634
49989.057568719196
49989.82674241129
49992.50177480167
49991.46875878095
49993.80119357316
49992.600939812546
49992.387400217376
49992.343508239646
49994.10197124141
49994.35493740525
49991.13126887314
49990.46829353493
49988.63940039769
49988.2290342079
49989.10656426019
49989.67780504006
49988.50528321844
49991.079000381425
49989.57462631889
49989.56186559559
49996.35618018686
49989.72822904113
49994.45255364878
49994.48063828406
49993.33251934239
49995.075168662566
49996.62164990148
49997.12915927388
49996.126858790456
49994.57269156132
49999.85945101119
49996.61462451112
49997.26548963469
49998.47856648971
50001.34485520701
49997.87319065376
50000.20257405309
49997.883524012504
49999.99546139227
49999.64637604766
49998.57167830938
50000.4788406166
50000.226191055044
49999.23765799449
50000.652919370455
50001.421697210535
49999.850023114486
49998.72088303934
49999.81572138806
49997.9614393115
49998.85372484863
49997.54613350827
49997.50835166502
49995.227338350014
49994.37604100613
49993.04214471398
49990.790134575596
49989.1285070519
49989.25939804558
49983.46643985332
49979.88260262782
49974.98179465179
49977.05893294622
49974.94004006092
49972.50640369088
49969.1868387923
49969.20125764099
49971.834158709025
49971.998041998886
49974.53568733361
49976.412422869296
49978.247099819055
49982.973951169275
49984.51981996495
49986.579833977106
49990.4648712173
49990.82745687155
49992.83477022844
49992.32315914719
49996.13787304222
49993.337235243045
49994.092090894104
49989.735971716014
49992.60509939585
49994.676778502435
49990.12759366827
49990.50584754179
49990.40162691066
49989.13637087629
49990.403251087155
49988.87926742483
49990.628012188885
49991.11700505047
49990.984502775515
49990.344545807726
49991.131293805534
49991.75191304388
49994.37570030194
49996.21354811924
49995.80754457659
49996.008698993406
49995.92285271549
49996.79255803726
49997.66698329145
49999.03434023508
49998.08674251797
49997.85731866652
50000.01822521734
49998.38774118929
49999.29243332028
49999.978426473564
50001.01695206408
49996.958924901286
49999.79860124889
50000.66458841587
49997.01194899542
50000.85993949083
49999.01729806031
49998.25269156811
49999.54014126616
49998.44044832104
50000.0092031164
49999.68814772538
49999.585495908206
49999.94206493661
49996.77329624991
49995.432561192414
49995.597987502515
49995.16806291889
49994.046557375696
49989.39704603862
49989.643174816
49987.93270332081
49982.90962396413
49979.660484799264
49979.88433366377
49976.75580354031
49973.22112177601
49972.49089316719
49970.09856541664
49970.019725699385
49971.12625519118
49973.46628174833
49974.56038887046
49975.98952885059
49977.13036037937
49981.38169755132
49983.890375596166
49986.65590843526
49989.271839464694
49990.42955747031
49992.465907167025
49991.17223646287
49991.575575970426
49991.88855042051
49990.39057457755
49994.22531846935
49991.25434849645
49991.687093272405
49989.5867064052
49989.02049491927
49990.109606338934
49991.260863326235
49990.34412553001
49986.360864046095
49986.99761185357
49991.14571879491
49990.31408444691
49989.80372777486
49990.40658725884
49993.53484539905
49993.40982554327
49994.419589389996
49994.91243283441
49995.74457456378
49993.45113666946
49997.45595919521
49998.68946708884
49997.99410815838
50000.07792944592
49997.29098966994
50001.74450937452
49998.67034944856
49997.53529751766
49999.555919368635
50003.05357994204
49998.56164316365
50000.185029387554
49999.41526570724
49998.76316650092
50000.85292073454
49999.80149291238
49999.85851328007
49998.716261044276
49999.38059020801
49999.75872451163
49998.46140380245
49999.87318608383
50001.870905754
50000.66072473447
50000.49482312708
49999.201274807696
49996.18688184683
49997.50509938569
49996.07751727265
49995.36303994441
49993.39718781885
49986.711234027476
49987.76818470356
49984.995518626485
49981.67765820308
49977.272015973125
49975.55357272012
49974.7324961691
49971.457917346255
49970.14731692117
49967.213220945865
49969.953632151395
49973.45315370189
49974.17391745658
49975.69387125112
49978.341383259714
49983.211972916695
49985.062604886625
49988.56278714748
49988.00998818002
49992.469618995274
49993.5514117122
49991.884324554354
49993.578078978506
49992.39523835694
49993.68832087998
49991.454046860905
49992.66480138139
49992.163639872866
49991.6821387946
49988.48254731178
49992.86357996133
49989.71830044918
49989.29983743413
49989.83800079171
49987.89144334409
49992.97082670989
49992.41105170942
49991.62095303548
49990.56390733361
49991.380053608984
49992.28880613567
49991.21704439391
49992.5160006151
49995.406981331376
49994.111270637186
49997.061854344145
49998.71230850736
49998.893007934974
49998.930306496804
49998.61878034761
49997.27720784613
49998.46441310979
50001.930484311364
49999.85125364815
50002.77053993468
50000.6952159195
50001.09192061503
50000.7582586437
49998.92968825219
50000.787711265744
50000.40011328414
50003.488713696446
50001.2630167541
50002.151762686575
49997.17497100131
50000.80885818924
49997.79758064683
49999.12506737235
49999.36524220261
49999.194991400494
50000.48445477717
50000.6126653901
49998.636968586536
49997.708653180234
49995.291697031134
49996.28157138195
49994.63544758197
49993.55711276138
49989.08368982276
49990.26638367174
49985.793944221
49980.668209956544
49980.159518558656
49978.629984001185
49975.59887284904
49969.76437238664
49970.547294585085
49968.81584441717
49971.64839043352
49969.1059566897
49971.79814196122
49973.95631885295
49977.963783069186
49980.08134977012
49981.88679169179
49987.86212165909
49988.587248168384
49993.972178248485
49993.01619732248
49992.791447878364
49995.41232032458
49991.50576683627
49992.98392410928
49991.03611996927
49992.08057022504
49991.95004852286
49990.568103483405
49991.906948701435
49989.434315903934
49989.69615575204
49990.146159266675
49987.15865609078
49988.9422488713
49988.403510506454
49986.53741855698
49988.84980397764
49988.284496399996
49990.91004017371
49995.092508337715
49996.33173388653
49996.02478921674
49994.217267881155
49996.840610204854
49994.45552690707
49996.543324675826
50000.24868552337
49998.92916595912
49999.35515767497
49997.0146783202
49997.7870308371
49999.984952166255
50000.3335947708
49998.17067642981
50001.23252640289
49999.640864931185
50000.995418517545
49999.807974888776
49999.609279838594
50000.634449305006
50002.633581610746
49997.32838586796
49998.56153180145
49998.47882285599
50000.8282830191
49998.2566470408
50000.81889422516
49999.90087881045
50000.68209576079
50001.3625080011
49998.57468435621
50000.81580888617
50001.23434392554
50000.77322238783
49997.112894274316
49998.45970611346
49997.813551749154
49998.64626983609
49995.18792741844
49993.90326602241
49994.25699013344
49988.895456229206
49988.51233772666
49982.566924529085
49979.01475989335
49980.481085698826
49975.8345963341
49975.532883109205
49970.899555522505
49968.75676322813
49972.24521381327
49969.33418414451
49972.012379156746
49971.20770301213
49976.47255437815
49977.64017175715
49981.44492542839
49984.17189210959
49988.64883462292
49988.29617865846
49990.89470614694
49992.09576284982
49992.025553507396
49994.71019038137
49993.463417484665
49991.66226645326
49990.48131263397
49990.68620893244
49992.23453641507
49992.21679743844
49990.91685075717
49990.07653379087
49989.205070959935
49988.469392399835
49990.46081917189
49989.43634488178
49989.71848560998
49988.73708424599
49988.90710529426
49994.22131361283
49992.52167918221
49994.22253117475
49991.15801928137
49995.38989634578
49994.14499424714
49996.84119632538
49999.0298730645
50000.76722355689
49999.89054339528
49999.10587919491
49997.35771853319
49998.7169424277
49997.6934844648
49999.58097742279
49998.03245067867
50002.023004635834
49998.63808271287
50000.229312365125
50000.25474696914
49998.39640152236
50002.27600585696
50000.9547335567
50000.45358501378
50001.84993831771
50001.053684756305
50001.24619412312
50001.61755036998
49997.90661443934
49998.588483105545
50002.42422656182
49999.90129604659
49999.17594747861
50001.181855466806
50000.458143575306
50000.32276272882
49999.19227426427
49997.19322662098
50001.513214947685
50001.59569549535
49996.59562468546
49999.55836117719
49998.544831663836
49997.95135100766
49997.62047974688
49993.26350499212
49990.74997458214
49989.38004625767
49986.27056308019
49982.60916564533
49980.52152941278
49978.62541129922
49975.57099735106
49972.90094506476
49970.15145379868
49970.65252921969
49969.73577557125
49970.734931718034
49973.20465823537
49974.13169173388
49978.23437552886
49977.65066105434
49979.645215873694
49984.79710672147
49987.76080878357
49989.99977870635
49990.84755059975
49991.90771143551
49993.634755229075
49994.678525642725
49991.6532054812
49992.504079249484
49989.69282702379
49993.16846613553
49992.10552178069
49988.81626776232
49990.70960613722
49987.79137159808
49990.23369565004
49991.091880363834
49988.57451733486
49988.80945741791
49991.0579963914
49990.089681992904
49992.93333356921
49991.90691796472
49992.71380491583
49991.27351495678
49995.13697547887
49994.13614669645
49994.40761612487
49994.51438974481
49996.00001476897
49997.63723966056
49999.131730709785
49999.948269841254
49998.672186899
49997.43095329358
49999.28774178052
49998.415816428205
49997.94274666153
49998.164384719224
49999.508386755275
49998.903735849475
49998.71767580446
49998.8435525767
49997.89639011049
49999.44326424284
50000.352620498794
50003.87822628812
49999.085045698084
49998.524962197385
50002.62889542202
50002.23152433342
50001.11304334529
49997.42565161267
50001.15400812136
49998.24571312917
49999.59690650153
49997.15339239573
49997.53188162854
49996.693361113816
49998.46869907832
50001.10498908602
49996.99874420918
49997.94326650499
49993.64651612408
49991.534243176764
49989.993700604755
49988.600825437294
49985.424441968906
49980.62840293393
49981.76523016563
49980.213846866565
49975.25859314719
49972.335364195824
49969.9992458249
49967.986586957515
49969.554135103725
49969.46101297031
49971.289641523435
49974.290238368434
49976.85969387004
49979.77241052581
49985.181774221295
49983.281868168415
49987.96905275059
49988.29303311486
49992.813234684916
49993.66525841246
49993.146039633975
49992.825858100405
49991.30958393984
49994.768415715305
49991.61904279979
49990.77220465367
49991.74846003826
49989.30654690399
49990.32307297642
49991.72135698993
49989.89941022413
49989.698343163545
49989.244390389154
49990.26336280237
49990.1093537284
49994.41743828265
49991.84757791709
49991.27714194457
49992.852741812436
49994.068987075036
49994.68277696071
49992.49838165028
49993.743937984116
49997.96524398757
49997.28144150012
49998.4020721532
49998.69114906845
49998.495407245035
49999.63029765149
49998.76871525294
49997.14863500512
49999.514432769734
49999.35768512761
50001.38785722946
50002.036080652666
50001.34171353014
50001.104085842126
50001.78956346529
49999.41125991421
49999.56286698247
49999.43913289565
49996.235507128826
50001.593892391575
49999.117732822284
49998.882988856436
49998.04590424923
49998.167936467944
50000.53931448785
50000.0570818922
49999.36965409311
50000.055717147465
49998.241926598406
49999.51399237723
49998.75908317293
49999.23484079131
49999.71158064315
49999.61081145213
50000.15801035958
49999.08914933214
49998.37374994462
49995.802868679355
50000.40681346465
49995.258216821705
49994.794281718714
49993.21840060848
49992.01914149293
49988.482599862145
49987.28229793494
49982.17179799232
49978.08285856905
49973.50367644089
49974.29127746169
49973.954684472854
49972.002483441924
49968.41119461805
49970.26073112584
49970.72700700781
49972.85220594842
49973.93498473641
49980.82571492269
49980.179941922244
49982.83805969329
49983.547596083445
49988.84642350944
49991.317200097204
49991.62294927307
49991.322733894354
49994.83762332384
49994.727144035234
49992.28799541779
49992.7488293602
49991.81113749253
49990.90332197342
49994.64065383475
49991.40323331999
49989.399575846
49990.178559040585
49989.16053534051
49989.31408498022
49989.156276990674
49988.115494074525
49991.380657363785
49990.01356164542
49991.97674006549
49992.382316967305
49994.370450417555
49990.75291251961
49992.87594726527
49991.32463581805
49995.35155566803
50000.808046965656
49998.37449117425
49999.5409615761
49998.918678906666
49997.73310967628
49999.331154551895
49998.99836246506
49999.89581121444
49998.58066595119
49999.899705793716
49998.484948321806
50000.85443473766
49998.94789971344
50002.529862421376
49998.02653423431
49997.54561286379
50000.71731008839
50001.58429762509
49997.821313494365
49999.006807391255
50000.38955108406
49999.10312563573
50000.329076761765
50001.12199527985
50001.14388438178
49999.24010858786
50001.64974101721
49997.680079264035
49999.30419061603
49995.721500917665
49998.30451946413
49997.32517387904
49994.19840752632
49993.543624296275
49991.225725695294
49987.92635184777
49985.90647401105
49984.61358614731
49980.52951208952
49975.873968849395
49976.00206585045
49973.496870572235
49971.1865413955
49968.67243263235
49968.595466712424
49972.13769193104
49971.3280783544
49972.072820078174
49978.88774646589
49981.78440697674
49981.45101207273
49988.04884267923
49985.97428184741
49987.99417242651
49991.2347058671
49992.952268326924
49993.34370428491
49993.085345252504
49993.96749952853
49995.88704363416
49990.327527434405
49991.415293667225
49989.9421293031
49991.84086677074
49989.274436812615
49989.71777568636
49991.19509716651
49989.55358868271
49987.28477303638
49990.84432378087
49990.53587056254
49990.41978998437
49989.320575799735
49993.64109945563
49993.93089192839
49992.9162802788
49994.72437526338
49993.19948812461
49995.20527902365
49997.55648455533
49997.930487245234
49996.649928744475
49999.32265612055
49997.12605673523
50001.2875234503
49997.67173918737
50001.163687579465
49999.5283715344
49999.083637749616
50000.201597407366
50000.538016904604
50000.367774914936
49998.87883856301
49998.81372080607
50004.41662261927
49996.36335964001
50002.327450487974
49999.391973644146
49999.616041809175
49998.94747773751
50000.09774215089
49999.31590975211
49997.25510909483
50002.018542001184
50001.22368886186
50002.715003783545
49999.34797535315
50001.41095768698
49996.23791290425
50001.84174377872
49999.26682113897
49996.81654859585
49998.074014797334
49993.09711879488
49992.308654879984
49988.13634690629
49987.03717139225
49983.892640700986
49979.713856155606
49978.74008627244
49972.53373528648
49970.72173313421
49972.10089709049
49970.205667649454
49969.19813317221
49969.55478793915
49969.003248067915
49973.37570131012
49972.47740025167
49977.765592911644
49981.63647770035
49985.092537901786
49987.52304225544
49989.0340589711
49993.60818641866
49992.10210046198
49990.47370509912
49990.936306518444
49991.619754112806
49992.65373786629
49992.5671560887
49991.90243268586
49992.777795197406
49988.7383988128
49990.521221625364
49991.04470398374
49991.13292160381
49988.45268241189
49989.41393690752
49990.86364790743
49989.17706417227
49989.31828617744
49990.39604241919
49992.0555437419
49993.13758716607
49994.69078057538
49992.52119321584
49994.96576463652
49998.71889966919
49995.854962143596
49997.20598330216
49996.528355829454
49994.88785304459
49999.178620207495
49999.401811233554
49998.907531393146
49999.040808604856
49998.59655270366
49999.32813615502
49997.4977121624
49999.52003968786
50001.37484373926
50000.51582264063
49997.36946758414
49999.93033720994
49999.07260188279
50001.89045123333
49998.85138567315
49999.85431758863
50001.17679955229
50002.41556054733
49999.19404934588
50000.149196175684
50001.23153270045
50000.2167866616
49997.17972812825
50001.569061249225
50000.7536703398
49998.25741488748
50001.53580023702
49999.44687944642
49999.14862723986
50000.11773791454
49996.62579840044
49994.725595303324
49995.96250823855
49990.59778383953
49989.32276176731
49990.010258836955
49984.85215776704
49982.31049178759
49979.35401644826
49976.30756837139
49973.42433414908
49974.14537533836
49969.64886763377
49970.465943714
49968.366500432996
49969.927030059625
49970.12567150051
49973.49872472228
49977.38067678628
49981.30486131501
49980.35291962678
49985.048409448114
49986.469257099074
49991.51688826738
49991.660723967456
49992.97406985554
49992.29264053259
49990.597003985335
49991.52548187484
49992.69221147582
49994.464371363974
49989.7276895376
49990.882712683044
49990.539587335734
49990.3795806116
49992.18386656383
49990.787733296136
49989.60806848626
49988.62478172418
49989.177745727466
49988.694109527045
49987.94217334732
49990.77612675836
49992.732555703304
49992.26166203193
49994.702893941736
49994.07422676838
49992.262563325516
49993.62566850303
49997.933948911705
49993.04349298089
49998.02666689534
49997.92843569447
49997.99060633128
50000.2543240519
49998.232393740596
49998.249754394776
50000.77279400082
50001.14996947222
49997.22413026298
49999.4248540818
50000.44256530748
50001.569089915225
50001.964063957836
49997.368676922655
49998.02254601225
49999.7320634792
49997.19678995787
49997.637125527064
50000.22086617355
50001.99444111187
50000.432644614346
49999.4968515409
50001.77387835656
49998.07291761614
50000.71095329666
49998.25540325004
49996.67905471151
49997.58020894678
49997.2563671803
49992.222268885314
49991.558616074355
49990.8178093465
49989.49006612688
49983.381895587896
49985.27244234952
49979.725230773554
49975.03112455766
49974.29715609854
49972.59961180979
49971.07683953437
49972.03222829194
49970.18397737761
49973.646168567655
49974.47477076018
49976.663606646485
49979.740020882535
49983.05556727701
49987.40770622811
49988.13264066923
49988.192992642515
49990.75169654967
49994.65354945609
49992.09680243569
49994.843297919426
49993.58222696148
49990.211010491475
49994.37230105671
49991.562402353105
49990.7622669805
49990.21712454111
49992.17775869875
49992.350519334504
49989.89635460626
49987.520590779226
49992.54207383955
49991.1254181239
49988.681202997504
49989.57979089561
49990.71080456294
49990.266442341
49990.28730058705
49991.47960707564
49994.558334812915
49996.539897831455
49997.04891033821
49995.480184831715
49998.06898402261
49998.09379068501
49999.50009847369
49995.29599301674
49996.09663260186
49995.762224989856
50001.16029880279
49999.07242074873
49999.968264132534
49997.61649152551
49998.407309373644
50000.5296087877
50003.349595567866
50002.38796329635
49999.53384170122
50000.39226938227
50001.5902956038
50001.24033311716
50001.40486999408
49998.76588261252
50000.68593366851
50000.45861592974
50002.38989133546
49999.40793481939
50000.72165747855
50000.0840139029
49997.61855672599
49998.586401565335
49998.222662804306
50000.28066480841
49996.992690198065
49998.29268187111
49994.54167686964
49996.072207304285
49992.760147868816
49993.05755852269
49991.62452927341
49985.74409860881
49982.910449124
49982.4079081541
49977.0676811143
49977.406138450395
49972.5267924588
49970.79755489058
49969.2729217416
49967.10930720517
49969.68405235557
49971.53201972415
49974.5516676524
49975.84987414043
49976.688803548044
49980.084459944985
49982.71984447605
49987.26222152901
49987.95149827934
49989.78945457759
49993.11993845656
49992.81363419825
49997.68724508091
49993.02824802845
49990.47086159449
49990.96661805092
49992.90039496553
49990.72685272975
49990.16284822083
49990.77279307509
49991.76362102629
49991.03015837483
49987.70080482407
49992.30482260424
49989.09176582329
49992.09879525792
49990.796474059985
49991.53784352922
49991.02283860688
49990.20687773435
49994.497735805904
49995.09139022548
49994.9308427042
49995.48414727102
49996.019315048274
49994.65614640944
49995.82725174259
49995.57110494742
50000.04383683749
50000.36158536481
49999.653924389226
50000.09665361632
50000.5967650967
50000.82610417852
50000.089039757746
49998.87177373193
49998.32252462801
50000.480913100684
50000.721631064494
50000.99129522449
50000.820249028664
49998.05376969517
50000.224720695885
49998.38270955187
49998.94762694122
50000.38175947544
49999.991930861805
49997.459752621166
49999.803422325705
49997.9084666259
49999.49721229601
50000.38907021957
49997.435165904644
50000.76167690692
49999.34674176555
50001.22775967555
50000.51081463695
49999.77176640017
50002.78175589456
49997.555344071276
49998.202064382785
49997.252596108716
49998.007714659
49994.93281959375
49995.27063204053
49989.54296725313
49988.45968907987
49987.63035169627
49983.06389597592
49980.284474282395
49977.79722510517
49972.71111649415
49973.06355666509
49968.588921792245
49968.6077253525
49970.218283065944
49965.92568902992
49970.53287881085
49973.09727607419
49977.57901289547
49979.42618729473
49980.76117364672
49985.35173106135
49986.863574971605
49990.2904167823
49991.28704346713
49992.57355999996
49991.379619687876
49990.631304445626
49992.78680968453
49993.860496751906
49993.998082379636
49993.34804777835
49992.87622540682
49990.76495614173
49989.83741982808
49988.68115917428
49990.00774452659
49991.24420415249
49990.61371617265
49989.92210118454
49989.52919343491
49990.26167477091
49990.60089340597
49994.085159276554
49991.52443542366
49991.759570174065
49995.32094262855
49991.80958196784
49994.53364702301
49992.12395021562
49998.84637263361
49995.32328130421
49995.71676973785
49999.12616970639
49999.75572085457
50000.13143666401
49998.255386418685
50001.42638179637
49998.57599729394
50001.68583940329
49996.96181148696
50000.503794889926
49998.26623678641
50001.99998890797
50000.65496503604
49999.76850698605
49999.96437120018
49999.62627783937
49998.42708390891
49998.19258793103
49997.018688279146
50000.57530750761
50000.172167855904
49997.66363453684
49999.71056444618
49999.80180721492
50000.61955949513
50001.15153310665
49998.547585732515
49997.181888933745
49999.47912078936
49999.31885752575
50001.61622612909
50002.190188846325
49997.761827810406
49998.84718279368
49999.8084227589
49998.64322134415
50000.40993237651
49998.732408328025
49997.8396353046
49997.80616612708
49996.18540365036
49991.82980812283
49989.16645817669
49989.38306616631
49986.64640996389
49983.9141950335
49980.60055355663
49976.98675159277
49973.956439317524
49972.89442410813
49968.54429057118
49968.587255920385
49968.871003251144
49970.080164434476
49973.45233130392
49973.125816621076
49975.73593987139
49978.56330503486
49981.527728515706
49984.80115190189
49985.75461080851
49989.99287740283
49989.79847446051
49993.89069448034
49990.22292805767
49993.77780623677
49992.72437436035
49993.82725475812
49993.60367501523
49991.236050589105
49991.22285547892
49989.699630319155
49989.552832055866
49990.832902691676
49990.96065334535
49988.27908256759
49991.07908527541
49990.466884510875
49991.13446760337
49987.9378269159
49993.381444125174
49991.26434812836
49991.99001384066
49995.99249930491
49991.342825528816
49993.69929300516
49995.05932130688
49995.9539844354
49994.29954839546
49996.60639482052
49998.02763245781
49998.98773095892
49996.67216138637
49998.280928550834
50000.24088749988
49999.840746334805
50000.469017313
49999.721305133615
50001.08730257623
49999.695679251774
50002.82773842433
49998.93452950552
49999.92969618005
49999.99906626274
49999.663761774034
49998.90123203774
50002.84096745137
49995.32512578579
50002.28379292242
50000.86136339296
50002.20621607441
50000.073366079
49996.4874790006
50002.60269155157
50001.86457687753
50000.54428955298
49998.07597532456
49999.54939877416
50000.348572794814
49997.786480934075
50000.296908235716
49997.2134863548
49997.93608478152
49994.458452300794
49996.06293348472
49992.40028464685
49990.002706032516
49988.60718639316
49985.526855116645
49981.94418883444
49977.89378475954
49974.07233266259
49973.801534154605
49969.53804633951
49971.51108909898
49969.32191505753
49970.19004082578
49972.22030271534
49970.74226354876
49974.695801178364
49978.84430385357
49981.832391317344
49984.999970131874
49988.08119696551
49986.159948153996
49990.20335402025
49993.56866687278
49993.77159694567
49992.87736205478
49991.1958659263
49993.20645920666
49992.96106471535
49992.43687779396
49990.86974602055
49990.264951433965
49989.209155634715
49990.53090231715
49988.52073718466
49991.95208369665
49989.0343165991
49990.158665821735
49987.49231314503
49988.43655965273
49991.08571529525
49990.968909018506
49990.34024497929
49991.74885529741
49990.36887914464
49993.19811999613
49994.439928496664
49995.07288342876
49996.90775045761
49999.38837440654
49994.55553734006
49999.23387692715
49998.68213461433
49999.04083794236
50001.08002606573
49999.07618145604
50000.379319681364
50000.955344095084
50000.86454911415
49998.54171900877
50000.57471280687
49997.83608228336
49998.21224507812
50001.35311671329
49999.74436191785
50000.79497346859
49999.36937464639
49996.480229172994
49998.52785105555
49996.89503580366
50000.37086696517
50000.36276462685
49999.94737062256
49999.53659205792
50001.52437907181
50001.31543086666
49999.70524110358
49999.737585871626
49997.799968131265
50000.20904689397
50002.33275853342
49998.12166304769
49995.64169289651
49997.562015149
49996.88698021901
49992.220905275746
49991.50309349175
49989.012564141805
49986.95004805517
49982.33604074983
49979.76304599331
49975.251167707305
49972.29183936903
49971.218918105915
49968.093604250214
49970.47205274533
49972.46335025847
49971.476250644606
49972.47740832838
49973.97666134201
49976.26100244181
49982.141582259406
49983.28299621222
49986.652260398485
49986.963129149124
49987.10606340107
49993.889927929406
49991.121064141335
49994.007987802346
49992.87212293483
49993.435681259805
49993.67837733438
49993.88484969439
49991.91038528886
49990.98661716652
49991.205198460644
49989.64451506784
49989.41671026075
49988.82221080968
49990.639641233465
49991.43484133448
49989.380351392574
49992.126022176126
49990.585084641374
49989.529672111705
49991.840617705515
49991.86354706071
49995.08272543401
49995.2049978418
49995.930159606556
49993.38795414697
49997.375818516906
49996.472205758015
49998.351098553554
49997.90465816942
49997.56300760874
49999.08519598203
49998.60266142163
50001.133233036104
49999.06660167531
49999.48778783661
49999.34190410656
49999.50761513215
49999.34734550541
49998.89197257738
49999.33956699497
49997.91174239289
49999.158235038456
50000.30090408291
49999.956943097335
49999.301323968226
49996.999509865615
49999.13772940333
49998.89605751978
49997.98148768311
49998.7307664648
50002.50298709579
50001.584903867275
50000.89974665712
49998.64564809821
49999.82451676147
50001.86468115059
49999.069974335536
49999.00396901959
49996.17470736055
49997.24643413461
50000.58531607611
49998.73102291254
49993.68440641787
49992.81578558561
49991.54803087123
49988.78236204436
49987.54187713898
49986.22475293284
49983.34125593321
49978.590171578406
49978.7893385723
49978.14135253303
49972.493053781785
49969.3862525031
49969.3613124388
49968.512188203524
49970.556871958455
49970.792436600685
49972.239660721854
49976.21590293994
49977.377223122865
49983.84777323725
49985.337159911236
49987.82612469951
49986.52024989933
49991.10489059912
49990.01500426091
49993.08971972381
49994.290972314346
49993.58772240074
49994.30753672767
49990.65688069672
49989.82138716473
49992.5708909038
49988.74594215984
49990.76410235943
49989.53627479011
49989.586882364834
49992.9471489918
49988.65270441685
49988.08631761629
49991.0696991892
49991.09783931039
49990.910140980246
49991.25908675684
49992.861287171974
49992.526587830485
49995.73213461806
49996.614358465835
49995.50887137932
49995.39948295297
49996.71018369071
49998.27938563384
49999.31175915117
49994.61961721831
50000.77976350912
49998.13781873945
49997.435847597924
50001.45433653914
50001.069695794955
49997.30796501619
49999.613232240925
49999.63975481546
49998.182741480916
49999.722494396476
50002.96488261476
50002.31164055779
50001.53532323125
49999.95011705572
49999.11436106857
50001.275256810964
49999.44061681375
49999.05103196988
49998.86600140725
49999.49459034775
50000.13410847407
49998.751282840494
50000.71502545742
50001.40934125628
49999.59800799162
50000.008313714985
49999.62724700989
49999.71388987306
49999.40261750714
49998.99422440014
49998.567282925134
50000.56650616462
49997.6886103459
50001.6891503264
49999.59231789455
49999.5608563661
49998.77332096484
49995.0417190765
49995.90460193471
49995.52840801533
49990.019947992136
49988.5024685217
49985.005428233264
49985.06748177747
49979.24249466596
49978.406939883156
49978.46209275631
49973.46545290262
49972.72945446927
49968.55203444511
49971.41958212283
49970.97814424905
49969.90611358181
49971.53991225899
49974.83564440751
49981.14884520806
49980.1101557305
49983.438439276906
49983.564497324835
49989.3204575041
49993.558397971516
49990.3947638363
49991.96094781608
49995.847496725764
49991.651468139156
49991.809692267074
49991.93367399954
49991.05050338851
49991.085616345226
49991.97668658094
49990.26343252811
49990.503631219646
49990.20742588283
49990.1900687017
49988.77943790463
49988.75079192235
49990.7361232402
49989.58966355809
49989.972467881016
49992.5498274718
49992.4303305921
49993.629067064234
49994.06216091271
49996.53686458687
49995.050268698236
49995.734686429605
49995.94007895198
49995.503339006136
49996.83454145097
50000.955112642005
50000.16107004678
49999.226846724225
49999.869906987435
50001.22526131539
50000.19108197384
49998.41623394206
50000.60393448636
49999.81458741772
49998.232832703085
49998.36653209735
49998.64510034699
49998.98468775012
50002.1303234011
50000.070003410125
49999.89817744521
50000.80975472481
50000.60216091678
50001.828116621225
49999.152437772915
49999.7827006833
49997.30618042467
49998.39866111577
49998.1752816245
49999.805964482
50000.837340637685
50002.05798312507
49995.69788859101
49999.277785473525
49996.59486781423
49993.537011865854
49991.68768475769
49991.24038785337
49986.477172477884
49982.57254862942
49980.13616546463
49977.341866483715
49976.12239433417
49973.07175877173
49972.660183968655
49970.45464027203
49970.99990081946
49969.2322433565
49969.20371688676
49973.4557898202
49974.66879585078
49980.0551139342
49981.93217852379
49985.47278850171
49985.58642785575
49986.3044860851
49989.92656829575
49991.72195861151
49992.76540501344
49994.79375475369
49992.96375011151
49992.103259779265
49993.703499857605
49993.01123998622
49991.78637836129
49993.00178124511
49991.74379362329
49990.5564779276
49990.17420343624
49986.76968012988
49986.69710068284
49987.83781339918
49990.23146964257
49991.61177592357
49990.795461106885
49992.28528844209
49991.19634999444
49993.11298663717
49993.75051222805
49994.04759484224
49995.08445716409
49995.78757849086
49997.009219825144
49997.01490957803
49997.16623434988
50001.840593005334
49998.03352821608
50000.4187963417
49997.79905722655
50000.12343145182
50002.62295361321
49997.034405226674
50000.67793037136
50000.7516480242
50001.20798462841
49997.94289145729
49999.724608772165
49998.6065917661
50001.96137991735
50000.4814832742
50001.14900864083
49998.882354691275
49999.374675398576
50001.81434494475
49999.2383518076
49998.89860318941
50000.2017147134
50000.7532515033
50001.23477312305
50000.1765603395
49997.76217176867
49997.78023537082
49999.27619242982
49999.452176013336
49998.87780779373
49996.11070413194
49995.886639878256
49997.11225163514
49992.66797098066
49990.70369061503
49985.61094771866
49984.20582945542
49982.389675490806
49977.126261678866
49977.50036470749
49974.73125876316
49972.49832737427
49970.4130361417
49969.88092313776
49969.89325621506
49970.81721720447
49973.07816683419
49977.9050555145
49976.349723770836
49981.59246376847
49983.102103043
49983.622601982104
49987.73259760377
49988.815770164016
49994.15780662636
49993.04644314156
49994.85458905411
49993.205546489415
49993.530219062486
49990.50017148778
49994.378606502876
49990.436497044604
49991.41035256329
49992.1786215607
49991.44703748285
49990.46027238289
49988.26578096981
49991.74166241735
49989.369665407685
49991.52077410123
49990.7580756015
49990.65143250856
49988.276854251926
49994.563492981324
49992.91680697282
49993.36405769855
49995.12794365747
49995.73165268274
49995.00502215435
49996.102533304984
49995.21647096286
49995.841052440876
49997.043076316426
49997.65466820125
50001.60797049277
49999.14592605486
49997.5384228287
50000.54347330753
50000.387363320304
50002.601819571435
49997.859385720774
50000.74873432169
49998.81720488167
50001.60995808638
49999.08041537219
50000.36041812247
50000.311762116326
49999.324780020004
49998.8359947345
50000.6202278337
49995.260539917974
50000.646169368585
49998.19804019607
49996.3467423057
49998.60150876539
49998.304303431265
49997.93509533414
49998.74406947789
49998.196267801344
49996.724105309455
49993.96052510313
49994.21296548551
49991.35293931865
49989.29289139083
49986.09788500187
49980.929789404385
49979.48766103746
49979.1976867629
49974.16924390116
49973.28105385869
49968.75624264655
49968.7580556321
49970.07295896326
49972.632634172645
49970.92257053457
49976.79441806124
49977.27759053667
49982.714486255885
49982.92494346192
49983.62455802671
49989.05419152174
49990.29846825643
49994.21396821703
49990.78775479142
49994.000580746244
49994.11287465467
49992.83089193658
49992.236812270945
49993.129231636645
49989.47424025736
49992.31408042678
49992.96689539295
49991.24113492137
49989.183354715526
49990.9781000928
49989.66000584607
49990.14323298064
49989.62073107659
49990.658964886126
49991.62429583047
49991.96493727885
49988.97688949458
49991.88316983527
49992.86995189693
49994.84264756659
49997.32198965944
49995.15749858538
49996.89353941071
49995.718991051566
49997.217921441916
49996.764008884995
49996.21031406448
49996.887148112444
49999.23278480131
49999.57756123775
50002.37787474294
50000.01863085422
49998.87813191599
49999.03157280635
50001.03737583788
49999.17809928184
50000.10349362945
50002.939341039775
50000.8869793132
49997.71037041892
49997.834662184796
49997.68472620034
49999.71586854204
50000.2079348265
49998.68279896371
49998.884487707335
50001.169668202965
50002.47078858503
49998.92864133536
49997.957140002174
49996.538040087114
49995.53177841697
49995.354756825
49994.715608764935
49992.60591535474
49987.1148943423
49987.34214519641
49981.13818609546
49981.761255345176
49976.27191605523
49975.11820986052
49971.66056720455
49970.28426265823
49967.380945106364
49966.343837680346
49970.88516753486
49972.17583543045
49974.59186350276
49976.80822546039
49976.9340207014
49983.011810066295
49987.82962321334
49989.621427197
49989.848655312286
49991.64492451795
49993.10050835371
49991.637871299965
49994.520354663015
49993.916685761425
49991.73981160499
49993.71541037206
49991.711665319475
49992.0363568623
49992.596093657026
49989.649663917655
49989.24738369138
49990.445361391685
49989.07880200993
49989.60948759435
49991.683298605654
49989.316358327516
49990.413855563995
49992.15401832236
49995.247375617066
49992.24193867494
49994.60738038576
49995.70578162187
49993.05599187753
49995.359140186156
49998.94975358035
49996.581510627286
49995.98898127778
49999.99179372954
49998.015701083525
49997.97103258523
50000.914821595725
49995.17448903851
50001.58164549586
50000.6305211283
49998.9330810024
50002.05982699221
50002.242766270465
49999.676546944924
49998.16060301233
49998.68732989466
49997.89572047955
50001.716284266564
50001.692295347006
50001.88758053063
49999.817466385946
49998.60541932069
50000.48501944927
50003.87224852469
50003.0036012256
49998.731589402494
49998.7002750086
50001.327106659875
49997.125639083395
49999.357417805266
49998.33450740408
49996.98926960289
49997.17971448264
49993.602674043505
49992.33724433104
49991.35633535054
49985.67770997909
49985.1418010767
49982.57104383966
49977.18317208777
49976.13621256593
49974.288311334654
49972.2055989787
49972.01191907022
49969.84345118602
49969.978026182296
49969.86832798024
49973.58669953345
49975.49795845533
49978.67258818044
49982.85990327648
49983.977058981145
49988.38671357418
49989.38263023811
49990.699342300155
49992.6881685326
49993.25343996748
49993.83491806524
49995.18643954087
49993.991050263205
49991.91474167998
49987.738291038804
49992.141107334755
49992.757635448805
49990.42185599337
49989.11953265951
49988.8494114482
49989.037664282376
49990.96513008097
49990.74587632899
49988.87139607188
49989.10002759505
49990.08700960764
49990.429948424615
49992.73448695314
49994.04810751511
49994.07143991033
49993.0950702393
49996.01066917301
49994.443547958224
49997.796772290116
49997.32194434091
49995.50223689758
49998.099318359666
49997.869868330476
50001.13115650312
49996.90750283022
49998.529070549295
49997.60113955551
50000.624268569685
49999.26542119229
50001.287790070615
50000.14042587756
49998.94951942229
50001.83284311259
49999.529319831614
50001.06120269385
49998.85124606901
49998.51796074202
50000.145446452414
49999.56981107122
49998.79245200976
49997.7041526591
50001.272111970306
49999.46842084048
49997.94952026794
49998.41780348836
49999.75902279273
49998.67858462338
50000.726473415874
50000.32310836441
49999.6664759468
49996.83905779919
49997.316012538075
49997.70093775935
49995.99148198314
49993.72306581571
49988.6116798547
49985.972722756735
49984.39718979787
49981.6870362616
49979.861846388594
49975.857184015746
49974.54559739589
49969.4691330471
49969.21842270104
49970.760648921176
49970.60410319158
49972.248701068675
49971.70306999668
49977.95952301181
49977.33522442812
49980.406459779064
49983.195940891324
49988.117906194784
49987.590205077686
49987.878801741106
49992.009950142135
49991.40194982683
49991.93757107163
49991.90597846761
49991.08905101963
49991.524457757325
49990.33087879336
49991.89869189017
49990.52833351789
49991.33767101127
49989.742573122676
49990.71093099423
49988.47658710526
49991.42558713336
49991.427177065714
49988.72976758374
49993.94617688367
49992.75713427724
49992.46125445815
49994.667012327336
49994.6938541323
49994.4348597726
49993.91060322085
49997.07224889625
49996.232073324776
49996.605514531555
49996.44852259461
49996.51510825989
49998.53099392256
49999.47823614986
50001.02381991585
49998.039781406515
50000.20468509726
49998.133946216105
49999.56239522637
50001.81165702522
49999.40911745618
50000.427720945074
50001.36171878078
50000.02342163172
50002.056527923356
50002.53221059832
50001.404557547736
50002.20395775306
50001.33481435106
50000.88235317618
50002.09109413471
49999.10869544018
50002.519915828656
49998.385028535085
50000.12184098919
49997.646076794364
50000.20517749644
49998.42524489281
50002.53217511328
50000.04990497731
49999.448673046005
50000.437721054615
49999.99872284399
50000.11165706959
49997.17867941774
50001.49949169134
50001.16116970539
49996.794074350706
50000.4947392256
49998.49335566647
50000.91800056759
49996.23528068629
49997.005297226235
49995.356177027046
49995.77257498676
49993.163320755346
49990.22193639201
49990.08887676857
49988.06282295818
49986.977113365276
49982.46188090722
49979.97041053029
49975.90206161955
49975.03821961386
49971.8633996983
49972.5506877123
49968.977553755096
49967.18129613128
49968.98290933439
49974.688914586135
49976.0618848476
49976.38473337625
49980.29794887723
49981.906893598185
49986.306773114404
49991.03625723986
49989.18849239688
49991.68511026501
49993.4481519636
49995.30979189527
49993.013565905094
49994.53695165797
49996.05122561502
49993.71477666273
49989.87652511869
49991.02238399066
49990.63886725236
49991.409005055204
49988.0566435025
49989.27535323353
49988.75704044518
49989.83674840278
49990.23209511652
49990.137311295744
49988.735884433285
49990.38584938249
49994.05664867842
49995.49481741817
49993.44182041126
49995.235699325014
49994.7464251853
49997.72190563633
49998.23715920796
49997.8504414463
49998.3744734391
49998.30598279279
50000.09907168603
49998.894795558495
49998.360478528135
50002.73937519569
50000.1904256561
49999.402808213024
50000.44315338502
50001.0825838526
49999.297158013775
49998.031579655326
49997.7976762748
49997.889389188334
49998.31622898429
49997.582841077136
49999.34101353974
50000.77107566079
49998.20939121235
50001.98597704739
50000.85646620446
49996.40669354144
49999.48087599959
49999.323848670836
50000.107985563045
49999.07240204795
49999.28880628108
50000.65008440626
49999.93620690919
50001.52195644598
49999.58798572548
49999.261586529756
50000.27825323002
49999.363676903486
49999.37889634904
49994.9160780267
49996.14993988674
49997.808658048845
49996.21173539006
49992.63768496887
49989.76619745892
49987.021342791326
49986.980142640794
49983.08837468209
49977.32960032708
49976.43762284511
49972.87575877386
49970.1569354613
49969.86919120309
49965.77485004538
49968.74095653806
49970.727561568776
49973.53137510123
49975.39048758086
49977.11310450877
49980.91409034045
49983.23215128433
49986.28645707932
49990.24093410806
49990.06535617782
49989.352254802005
49993.03255725268
49990.653382755474
49993.7759908243
49993.687441078146
49990.78481396362
49992.48690802156
49989.30568359664
49990.276389663166
49990.337255281665
49989.93051181363
49991.43497117201
49988.96226349786
49988.78783409674
49987.03356823053
49990.03957008864
49991.53889450214
49992.69126666789
49990.42047699394
49992.59313286188
49989.634851852505
49995.213437533544
49994.77621559905
49992.667981976476
49996.24011079478
49997.66102833153
49994.56761182815
49997.752316569444
49997.61322622246
49997.304449731666
49998.092542353974
49999.831674089764
50001.30631890359
50000.57835649592
49997.65100553934
50001.07422072909
49999.33003928689
50000.076746903585
49997.89924886445
50001.7500309013
50000.95682150583
50000.98055475697
50000.304915346074
49998.92588595054
50001.020521285835
50000.68263902247
50001.654194548
50000.02163618763
49998.71718393438
50000.60854755485
49999.40051380512
50000.019194972454
49999.624116915365
49998.823212378404
50000.37940048885
49999.3442018211
50001.078500525626
49999.77387296425
50000.690136126876
49999.76086259335
49999.29084825726
49999.86700099321
49998.24015983421
49999.38610124533
49998.46016016306
49996.89362222305
49995.82327496531
49996.28024627837
49993.13069665617
49991.875647328954
49987.20856987608
49983.666124947245
49981.624446944494
49977.635813012006
49977.240555777666
49974.69432777771
49975.32439461751
49969.10468114883
49969.60440173791
49968.79767041442
49970.32703415245
49972.19502438649
49975.39335999246
49977.40751507127
49981.03336262954
49983.27243592764
49985.70937713265
49986.57435793741
49990.821352629966
49993.88614715479
49991.38733452415
49991.65184630499
49995.42093659888
49993.05082559402
49995.16731814224
49991.432701560356
49991.49791743
49991.658903662166
49989.887679824664
49988.77894415286
49987.30084673251
49985.9148299469
49988.031041411174
49988.32340551357
49988.08741699964
49990.55606219395
49988.282681635734
49990.058912298024
49992.987329108386
49993.42904684971
49991.34849578716
49995.93178924387
49994.62293214301
49996.031193271374
49993.54616052643
49997.068160933515
49999.4458025498
49997.592864481856
49996.878083573545
49999.699050625604
49998.18344471108
49999.02841040843
50001.02148426498
49999.6820498674
49998.32083608888
50000.45487631413
49999.7530707907
50000.409159615825
49999.55838798699
50001.998866106434
50000.79834317376
49998.43038693094
50000.4884599181
49999.838828429674
49995.68904232867
50000.530703455974
49999.6520437589
50002.055190139574
49999.88270793282
49999.53415604718
49999.65425107859
50000.412095871245
49998.31382501656
49998.64996978439
50001.15000399697
50001.320662618724
49996.89500016245
50000.8408240112
49999.493996050885
49994.17284007536
49994.75393037393
49994.60478170884
49989.21809753641
49984.982524258165
49984.40268926074
49983.57870844501
49981.22386685384
49975.25389950666
49975.08473156611
49971.63674323209
49972.9167260599
49968.838325291916
49970.64427758804
49971.6176505907
49971.62050950886
49975.27736949556
49977.51206216363
49983.357259831566
49984.42872496883
49987.36305330497
49985.101938524975
49988.06411053252
49990.7677920195
49994.34326938436
49995.185242653875
49993.44568901736
49992.36502977193
49992.9109695957
49991.69737283935
49992.17078007421
49989.985274566534
49989.18891852259
49987.69149415862
49989.11623837236
49989.250063411106
49988.10064896962
49989.71769949973
49989.832627244454
49989.18861254481
49988.007432964834
49990.908944778654
49992.12397572299
49992.47283370857
49995.48205980582
49994.8868522549
49995.374291691944
49996.394034930534
49997.86813378199
49995.557764791636
49995.89906475953
49996.22904130713
49997.18081840893
49998.28952913271
49996.07332090151
49998.041553834206
49998.506103009255
49998.245415868674
49998.67042489353
50000.862675087636
49998.41626046418
49998.50361456648
49999.2863095094
50001.42033949738
50000.5961498384
50000.590513315794
49999.70302673725
49999.80145910261
50000.72518020363
49997.97254469752
49998.89472758775
49998.45349735045
49997.41705245343
49999.42709302107
49998.73021060481
49997.80521506861
49998.79138266774
49997.43021996439
49998.48470431449
50000.64300930905
49997.306423976464
49997.90835198025
49993.807385609856
49994.021353416945
49988.8009976067
49986.57292876928
49987.38996925087
49982.47757461006
49976.85521801084
49976.62586834035
49974.66620045132
49970.00781217952
49969.139891396764
49966.80390285234
49968.679988879114
49973.61678387549
49972.96684310533
49976.21431437653
49974.27804693658
49979.25060516869
49984.337248469696
49984.75041051087
49988.06063452627
49989.86267931093
49988.74774376783
49993.494872378724
49993.19283293275
49995.17424638131
49993.71148910317
49995.593074618984
49991.212251832396
49993.16004733415
49991.68297460345
49992.353140882784
49988.69176191052
49990.59577904644
49989.17622506243
49993.12990563382
49989.01819059123
49987.22213221232
49986.77095850843
49987.28054525626
49992.403762592236
49993.04418629901
49994.830566210236
49995.461707614435
49992.935958588314
49994.98424289353
49996.004489284554
49995.87147592297
49995.56255912603
49997.927077335735
50001.170170444166
50000.31267001837
49996.801839504034
49995.13136719347
50000.05954709747
50001.156534207475
50000.13898752318
49999.861029910164
50001.58396804474
50000.70957602729
49999.922319646175
50001.34978797729
49997.23952976911
50000.598804216315
50000.20486081725
50003.97575999241
50001.555102453334
49999.43417995617
50001.32387898044
50001.98809940986
49999.895749625444
50000.874413099256
49999.136314712676
50000.16024368429
49999.0502157935
50001.863229352224
50000.2947037294
49999.244143086675
50000.642514668
50000.22405418636
50000.72985672
49999.67986532967
49995.42156098573
49994.37934464678
49996.191780882466
49995.51634217206
49991.53109916663
49986.272566494474
49984.117762356705
49982.772651356965
49980.083204399605
49976.77985905248
49975.06907796711
49972.68744704827
49969.633148175744
49969.98240940759
49970.237637523984
49970.87867674733
49970.98637476376
49977.21115401015
49975.82806904
49980.63679041354
49984.83568376622
49983.74393763643
49989.395338800125
49988.86713133626
49990.08524093588
49991.646719673496
49994.894492011066
49996.65545957043
49992.29597400822
49993.02374321972
49992.33718356951
49990.80606001528
49992.71882324414
49989.69269395166
49990.27126914616
49990.03642062016
49990.68534640746
49988.64940120869
49989.63466709686
49992.238233711425
49989.64449908359
49988.786607316935
49988.85178860198
49993.47511506365
49991.925876029236
49993.480117485225
49995.09290287243
49994.16428681225
49997.720509533305
49994.275074937854
49993.931083070995
49997.16794980523
49997.07720967989
49999.64676079803
49999.030340589314
49998.09125113748
49997.98215696857
49997.76779557875
49996.50516302836
50001.00291617691
49998.44117815385
50002.78228515662
50001.90188407926
49998.53193156231
49998.393973345985
50002.65702281328
49999.73697812053
50001.3472022586
50000.85362026584
49999.80010356739
49999.47219461271
49999.140672395166
49999.23293577098
49999.28630610317
50000.38040774932
50000.33594599071
50000.93719692381
49998.44058183921
49998.8294909491
50002.31899876688
49997.95567362433
49996.03497965834
49997.750770086466
49995.004290260025
49995.432153543676
49992.04225569834
49984.73843280887
49985.94018521946
49983.39553757918
49981.464254319406
49978.42809749507
49972.91309638451
49975.17498144291
49970.29782927173
49972.626714407605
49969.57857903337
49972.78063589632
49971.55937432756
49975.23948802866
49977.0061440272
49977.11973787025
49983.10869319541
49985.42314357221
49987.9735970579
49990.233972937414
49992.716244533745
49993.29354097457
49991.172906084445
49990.090507155124
49993.8027203582
49993.310976873094
49992.36930546792
49992.81191046555
49991.67077148935
49989.593876364066
49989.067937377265
49990.67970168766
49988.46617944125
49989.23568009416
49988.9375095102
49990.36773306792
49987.42200324039
49992.483434659356
49992.35918199135
49991.672501338515
49991.36426338152
49992.318446642355
49994.89319713701
49994.965205122666
49998.05605034268
49995.67688595033
49998.27249898221
49996.60786122055
49997.3700509773
49996.76704173919
49997.449027172814
49996.281873737236
49997.26394517626
49999.20212505382
50000.15415164379
49996.74928816996
49999.71590007704
49999.7162743722
50000.68030650971
49999.9366670625
50000.68580327766
49999.61216222571
50000.20216441483
50000.35396330335
50003.91296007912
50000.389128210256
50001.16613570249
49999.79498770112
50002.08780802057
50000.36441198178
49999.88750507455
49999.781965295835
49997.726736243436
50002.04311055248
49998.97106271091
50002.044320289315
49998.8124400211
50000.20807544054
49998.010088688614
49998.11549074766
49997.461029640086
50000.43630941453
49994.88222218175
49995.65440834619
49992.90637908407
49991.36710767965
49987.72890339469
49988.220120208025
49983.91560244485
49980.747280282376
49975.788774003435
49975.20954520897
49976.3183605589
49972.04440119946
49969.87536042659
49971.43386439482
49969.53886777245
49971.382218150684
49974.93464694315
49974.61098844613
49976.19511426494
49981.87579942962
49982.92936977916
49983.430725749095
49990.239423563435
49991.55308851859
49989.719943543045
49991.41484889742
49992.41640758812
49990.51973860486
49994.18487779585
49991.73521784217
49994.02105585391
49989.86113918322
49989.647714545776
49990.25392372686
49991.16811746927
49994.12517154604
49990.70342610342
49988.38459816024
49990.767755385816
49988.54955366678
49987.97947503076
49991.16734289296
49990.08460245626
49990.64119151192
49992.776485915965
49994.37732699808
49992.82718668966
49993.69529447651
49996.62368668163
49998.29410922984
49999.8618448045
49997.835848209696
49997.01756689876
50001.16687712364
49999.935251897696
49998.274887920794
49999.89775663586
50001.13584736662
50001.01252731463
49999.47981852045
49998.84085942379
49998.851092301404
50001.35619030555
49998.75501549066
50000.3162646327
50000.47471709705
50002.824722891724
50001.111145233284
49998.37597073731
49999.24088930954
49997.454122954885
50000.682591830904
49999.31025009211
50001.13185350144
50000.9282309284
49999.788668039706
49998.44280994753
49999.023184686885
49999.87298121037
49999.53668492148
49997.32826296037
49995.711111456534
49996.8126973586
49996.671008032434
49997.34145581883
49992.69611424346
49992.46674204673
49987.11267870714
49985.73379925759
49978.73609240812
49980.258348713345
49975.480832526904
49974.124444488865
49968.77424203651
49968.229216357635
49973.38870368388
49972.19745677597
49970.341298461026
49972.65037925931
49980.40148093154
49977.746563679604
49979.04203234129
49983.72136887221
49989.779351807505
49988.61308261756
49987.061280196496
49993.124947653254
49994.46484747468
49992.4247136717
49993.91750832578
49994.61440183678
49993.35894188353
49990.03628531428
49991.36564556464
49991.16817148222
49990.53229546576
49989.25100511489
49986.83532044254
49989.22318616908
49989.252679153804
49989.23473611438
49990.97637382343
49991.55158570781
49988.83897932544
49988.43711615147
49991.291901607205
49992.81744798108
49994.603730149924
49997.75981018003
49994.56081188208
49997.46751073642
49996.99045367172
49996.30707964333
49998.567911184575
49998.58070814102
49997.54568485667
49999.45966799749
50000.695590732175
49999.95823373038
49996.952432284954
49998.617477599604
50000.35488706683
49996.7420606345
50001.768812008646
50001.00584096782
50001.03762199648
50000.853053636
50002.44800733489
49998.375157489245
50002.428038327766
49997.88296602133
50002.2346005785
49998.67994381164
50001.39659589113
49998.19043291249
49999.07789180218
50000.481116615956
50001.949598500265
50001.73781008717
49998.29016585615
49998.154415581674
50000.37164991474
50000.87460424326
49998.77517736266
50000.67200079597
49997.087538577405
49996.429892223634
49995.99458775973
49996.19593141621
49992.85664072704
49996.13890590598
49991.776904724946
49986.5788797268
49985.160918612
49983.562423548145
49977.446979108805
49976.49991237328
49975.41410325061
49972.33375232437
49968.38323722236
49968.520145758645
49969.53438029824
49967.737252624815
49973.799801666595
49977.2163872426
49979.33340139344
49980.52510244586
49984.546014675754
49985.679243791725
49989.497820982855
49989.745544654026
49991.51646967107
49991.76255538599
49990.9711957248
49993.080998492995
49994.39464029853
49993.01300834293
49993.68644183769
49993.98253218475
49989.71403968871
49989.48550322518
49990.91534157895
49987.85334746775
49990.30687018001
49987.097633550446
49989.05305351354
49987.89917657637
49987.41656440197
49991.3968117759
49990.80303793954
49993.740169694865
49990.631369952076
49994.5240090695
49995.34847980297
49997.458050810834
49994.676686315164
49994.19408406821
49994.36460597769
50000.22271963983
49999.210553730445
49999.34878604153
50001.590903408214
49999.839357990524
49997.37026209388
50000.05894314878
50000.68447014526
50000.17084115027
50002.19855790512
49998.67775448518
50003.7695172334
50001.35202348047
49999.97474003503
49998.34782278851
49998.67898965029
49998.65494301027
49999.152340121196
50000.549056076015
49999.72955651751
50000.81655205524
49998.76012892619
50000.38591471578
49999.83946548858
49998.44048696255
50000.892614292825
49999.3820185292
49998.22066844423
50000.328025235285
50001.99381905964
50000.83163797998
49997.92610595245
49997.26806601272
49995.752397208955
49994.35823841144
49994.38569340284
49995.17392186549
49990.197842070476
49989.29168502692
49987.67144976601
49984.08355419927
49979.606590333475
49975.55674408039
49974.167651830954
49972.90168287387
49970.814707520774
49970.71843914084
49971.03819698824
49972.53756485854
49974.122641831
49973.201852452745
49979.05329531887
49975.34265453599
49985.37001125738
49983.34041123184
49987.02451870188
49988.49214541552
49992.07804579655
49989.674759300426
49993.24563295999
49992.86194328243
49992.70298864648
49993.79750289704
49995.05525044234
49992.239317226115
49989.4907141501
49992.9129881807
49989.7877351745
49990.36743130756
49989.57843873136
49992.24145015472
49989.90236187329
49991.58771699376
49989.535737899074
49991.42727867558
49991.65238676429
49993.11657304591
49993.08557487307
49992.8024807239
49996.237816365814
49995.8739796009
49995.891425594215
49998.04821803598
49995.83539876641
49998.608921207175
49998.90721272348
49999.38070862078
50000.592884146135
49998.36943560021
49999.47690611856
49999.11155906684
50000.98480532427
49998.809665103174
49998.60843936127
50000.067443704866
49997.90888842283
50000.77419694714
49999.80122812076
50000.64126660614
50000.057404086445
49998.37608669214
49995.815577077854
50001.58192785948
49999.141997528575
49998.67574447397
49998.48208103284
50000.18193643873
49999.908396015366
50000.674820770306
50002.10355571997
49999.91218347544
49999.66133941325
50000.804517626806
50000.7209866671
49997.990912914465
49999.55233285405
49998.85611280675
50000.83709282753
50000.449484520585
49996.97380553294
49994.6913349425
49998.61912606809
49992.52653135116
49989.11432381505
49992.159880545136
49985.47611595176
49988.5451551722
49980.87292035779
49978.794255243185
49975.68923799584
49973.97523270163
49970.667087213835
49971.8669717004
49966.32256956158
49969.90850297807
49971.039462792905
49974.836084573406
49976.9420903466
49979.644722140496
49981.026178429376
49982.772257481774
49988.30502160674
49987.31416786775
49987.62935864934
