29998.420199332602
30001.07898138219
30001.149084254845
30001.72691986303
30001.24909684335
29998.09795794728
29999.381143603117
29998.926494606298
29999.796558516227
30000.52105205129
29999.829494841702
30000.092021175384
30000.17454333854
29999.51442292572
29998.905947163763
30000.933990830497
29999.692583483964
29999.147271223505
29999.25876671395
30000.799462931493
29997.672163706364
30000.01173000327
29999.36968659645
29996.238202257042
29999.7793612667
29999.76272140263
29998.784778251353
29999.631120276186
29999.030250080392
29999.92664006439
30000.753156685638
29998.732156141225
29999.3042301533
30001.12274561847
29998.69256435902
29998.258811169482
29998.862247806832
30000.478808104934
29999.58036735422
29998.31083348826
30001.208217194442
30000.14451299983
29999.31772444798
29999.835553618588
30000.921220057575
30000.345884077266
29997.47382536292
29998.857259201723
29996.762929372824
29995.906658767235
29993.107033916374
29991.622762498824
29987.17968582627
29983.623728347724
29979.282186006116
29978.84953286644
29976.881521870342
29975.003997240805
29976.94816842014
29981.869122221804
29985.03424301691
29987.3708655846
29989.50460412897
29993.04698564682
29994.6043500951
29993.495730793577
29993.74312826742
29993.962431398126
29993.14222723349
29991.107391779533
29991.501758998842
29990.940781285994
29989.778154466287
29992.851764102477
29993.78892315042
29992.71072886044
29992.16047935469
29994.207248818813
29994.177383733786
29995.619887400433
29999.036326842368
29999.180287525098
29999.576663709147
30000.35972157678
29999.134241804444
30000.509183826634
29998.503488556624
29999.457935835813
29999.879917598457
30000.113741150148
30000.513799831184
30001.235258873457
29999.346365587742
30001.195007259837
29998.587395209946
30001.45415787179
29997.60053257828
30000.15934660352
29997.331970673513
29996.369642100024
29994.17020882372
29989.623533562255
29985.656077208027
29983.283969349188
29977.35395930999
29976.228845038055
29976.02423357893
29976.171907244847
29977.59386747661
29979.198528303372
29986.357506892877
29989.545614093553
29988.11864027143
29991.822166526836
29993.551863767792
29993.688618053584
29995.16557420849
29994.6196445809
29993.506637634713
29990.373469260798
29992.127418945754
29991.308079952647
29990.9359372246
29992.336600823804
29994.04299005317
29993.115919352753
29993.99719593135
29996.071770054812
29995.286760785977
29997.694075427808
29997.788773505054
29997.380107308327
29999.498591887303
29999.204980819446
30000.50107438412
30000.150977067802
30000.388819122865
29999.488630695247
29998.296529839616
29999.821698159383
30000.255995065912
29996.96163814665
30001.579584975854
30000.806925399083
29996.140416348375
29997.50867735812
29996.8352252575
29994.24187905328
29990.539565918683
29988.326239135356
29982.427248617907
29976.3602189915
29976.519721355176
29976.87944557389
29977.137629324927
29978.818403863897
29982.128545291405
29982.74065519137
29989.51783330097
29991.646774692927
29993.70023318451
29992.508628925734
29994.645425490387
29994.229226672014
29991.310500758365
29995.119094580437
29993.213324875745
29990.7364517409
29991.030594756918
29993.577007880107
29992.665110997536
29990.967491036503
29993.64485324843
29993.802723811277
29996.440776836953
29994.466513434152
29997.63273204693
29998.529433246218
29999.334410969608
29998.36691382039
30000.080123691336
30000.059376081757
29998.79120143689
29998.318470442402
29999.350158563142
30000.362057814044
30000.77495910587
29999.049375366056
30000.01919403719
30000.556379291207
29998.668264953594
29999.632709625497
29997.39912647294
29997.07826071335
29995.502153630892
29993.74067443108
29988.708494392187
29985.48108405012
29985.07977379914
29980.690911222795
29975.93744457025
29976.012791007517
29974.67409093641
29976.24060970365
29980.930136010506
29982.62060576604
29987.15133458257
29991.706976921825
29991.411972235965
29994.148718284774
29996.28436320879
29994.527927478706
29993.949894603837
29994.510125207573
29991.893557602616
29995.161577622173
29993.513336059037
29990.70663897308
29991.124932277515
29992.632420654278
29994.389202109483
29993.61405992873
29996.317917604476
29996.79303871527
29997.626299581898
29997.777587803484
29998.24604452979
29998.15502698663
29997.40778182562
30000.543357092058
29998.781506358868
29999.40936254044
29999.8832217699
29998.65812388525
29997.66692260713
29998.92290446459
29998.877074025087
30000.626806836277
29998.708724048727
29998.03188251348
29999.67471950824
29994.782767648845
29992.485190133128
29989.447424533446
29985.14689183232
29983.933721428046
29977.770188485763
29974.836440360825
29975.088058200407
29977.26931769262
29977.8319677136
29982.519355204968
29985.840451397584
29990.873342891267
29990.298088956002
29992.87627244
29995.01737725727
29994.79360379633
29992.332700637726
29992.37235376337
29994.2904879676
29991.91133774968
29992.302094694383
29991.388224192775
29992.7410091586
29991.332574435728
29993.47838400306
29995.05962438032
29994.19888150427
29995.9103917501
29998.065331029225
29996.263093562462
29996.865206303155
29998.79267324874
29997.231241042366
29999.86013979474
29999.794271167426
29999.42516532494
30000.601437308134
30000.587584063567
30001.242878839905
29998.96748739507
30001.731965913295
29999.219548170197
29998.47101830377
29998.40863896241
29997.99849521964
29995.704232279215
29995.957769628032
29991.060200967775
29987.62037382702
29985.871193283358
29981.911296162023
29978.592047128604
29976.364270221693
29976.56058904591
29978.140312406093
29981.833071440586
29984.408040463502
29985.759392454165
29989.056622253564
29991.96178406331
29993.964716648807
29994.42340804412
29993.81775325683
29993.16243163545
29993.26774096553
29991.982225010586
29993.771124968454
29990.70881135713
29992.59887573265
29994.100767985143
29993.18291337353
29993.74552801632
29992.628625791902
29994.31294771871
29994.819022239084
29993.76652056067
29997.992637868618
29998.538950505696
30000.390417391867
29997.194957826763
29998.720024838494
30000.86538608204
30000.880798455648
29999.72857377693
29998.307326557115
29997.64419115879
29998.610071147028
29999.838465647328
30000.268777456018
29999.48757089505
29999.928818792636
29999.106116307183
29999.125479508402
29998.01237484188
29993.238686404547
29990.15094200451
29988.844561213897
29986.37831926344
29981.339934154556
29979.940632528673
29977.601696132533
29977.41110533103
29975.945550638426
29979.915783234643
29982.162083160776
29987.384868000812
29989.347373592773
29992.729118864536
29993.998209463287
29995.738374492572
29993.407542252236
29995.4497669025
29992.528629583896
29991.593842984003
29991.57937934467
29991.25851769725
29993.66626332627
29992.46973917735
29992.313784436676
29991.04711075836
29994.815224477054
29994.595594674767
29995.652299609654
29996.75097987623
29997.06810767919
29998.39538937965
30000.610729310534
29997.3667661645
29997.962121089156
29996.535906026093
30000.862294639803
29999.280507372816
30000.87549001695
30000.607452275948
29999.81090103617
30000.614756062263
30000.614598126853
29999.831125525758
29999.421725028205
30001.1967631265
29999.68769418282
29997.278676774145
29997.038837324904
29996.79426140438
29994.672854107263
29992.57175356891
29989.667768707604
29985.25805424699
29980.059898218922
29977.723022378974
29976.19603984427
29974.73453987322
29978.814854113625
29980.657323912586
29984.227033332223
29985.226856497757
29988.973984684042
29993.73831206764
29993.60241666958
29995.367813965026
29992.646938730024
29993.70392515967
29996.543647485967
29993.339844623573
29992.225638642256
29990.413323720833
29994.192688752508
29991.48760887861
29993.003765241094
29995.533161756764
29994.963866896273
29996.383138786558
29995.43025316176
29997.173435081386
29996.841245455824
29994.212355200918
29999.686084731846
29997.78801844021
29998.62025616547
30000.510486068364
30001.170605700318
29999.755325486483
29999.9875549856
29999.7799302167
29999.80222430031
29999.054212084542
29997.901790899326
29999.68485759148
30000.078051456137
29998.907412339267
30002.250914430602
29997.101525101545
30002.77494249672
29997.86919952114
29998.191807088046
29994.593085790675
29991.594855213254
29991.306500227285
29987.39514911981
29982.783806777734
29980.415830207945
29975.925037610163
29976.173606063167
29975.44115440415
29977.622951779147
29979.89737826855
29984.491661900785
29986.97872583129
29988.026515348844
29995.305466038073
29993.99369362505
29993.734398514654
29996.080805604954
29994.197302169694
29991.94420622946
29991.072589742107
29992.51594746619
29994.001886863254
29991.593735364102
29990.82414397069
29992.132463378774
29992.363548526504
29993.70125282456
29994.289734248956
29996.850874881195
29995.126864428436
29996.088748353584
29999.453241551968
29999.295905263807
29999.3213746705
30000.835363790025
29999.94685204389
29998.90990837891
29999.749936627886
29999.45692759698
29998.15119123139
29999.949290857432
30001.590996803054
29996.531856715104
30001.066459183676
30000.27065444945
29999.445836836512
29998.807842185837
29997.314032249855
29996.62566054279
29993.296279819857
29992.10722594347
29986.060600072327
29984.292744240483
29980.32798544939
29977.283984819762
29975.287102639122
29977.863528838734
29976.8758030741
29979.022796787165
29982.92805440809
29988.457466290318
29991.51822358347
29991.39914945699
29995.10664958165
29995.129454392176
29995.44246256852
29994.152016514916
29993.242270660798
29992.87083264247
29990.750372086542
29991.099804883568
29992.398518315356
29992.926047449982
29992.1293873759
29993.17068697075
29993.976065358973
29997.896701764967
29996.376158576542
29997.23452386818
29996.99865545128
29997.57779092858
29997.576991155274
29995.366911767265
30001.044120868624
29999.558979320693
30000.44010900204
29999.754236793895
29999.93334265347
30000.26710690957
30000.877475252364
30001.3700895442
29999.67401629081
30000.092878808042
29999.666574267627
29999.41512780017
30000.63200908543
29997.21037428399
29998.12212512999
29998.927727115915
29995.374602741354
29990.61367330746
29987.997865156314
29984.45686261155
29979.678628903577
29976.54163828344
29975.18616435506
29974.916246680154
29977.093961982322
29980.866511876266
29982.66090077827
29986.921577397225
29987.315172335995
29992.85528529002
29992.264025312656
29994.59569553189
29993.695120122153
29994.17733681176
29994.32312627014
29992.250650204667
29992.328511280088
29993.44596592664
29991.02115314551
29990.355517519904
29992.228472562892
29992.13323399073
29994.36974423318
29994.339938909674
29997.11243399435
29998.121748987785
29997.558970904207
30000.34829432238
30001.20192142813
30000.32253045057
29997.208953966587
29999.00930481594
30000.519912142994
29998.986930652165
29998.31824894966
29999.803865310885
29999.11382423787
30000.577086318808
30000.098247711197
30001.07059578245
29999.451920261246
29999.81134544275
29998.628409001445
29996.87037503458
29997.75278338468
29995.736067909238
29993.60957888892
29989.608796380613
29986.884402221433
29982.253225362234
29979.92969519262
29977.066862508214
29976.147445187333
29973.684932461732
29977.959524250487
29980.064998057194
29984.843515932964
29988.868191263482
29990.497595176515
29993.22439064615
29992.502651930336
29996.918288371504
29994.40642686099
29995.454311050784
29994.402827439553
29990.686374768942
29990.6359709955
29991.13305309814
29992.697365252392
29990.88535770185
29995.36911232799
29994.051729098053
29994.146375940465
29995.966109988494
29998.394111498314
29998.192415862653
29998.196443957975
29997.43509940814
30000.69342394816
29998.746850800933
29999.93469320732
29997.43100602741
29998.703729323504
29998.4713266002
29999.57258503961
30000.040984112515
30001.70452965255
30001.147758012597
30000.41225341998
29996.00368249673
29999.318384534126
29996.996952067642
29995.504261255
29994.25441678067
29990.484151337474
29984.353375602634
29983.952296517902
29975.493113209734
29975.85419853911
29974.46929475371
29977.03658938793
29980.571443781748
29981.73955479947
29986.77358470598
29989.128151628636
29989.54700329024
29993.23595489166
29994.68216539673
29996.557696574193
29993.544922226974
29992.624080173373
29992.38337404753
29993.13230702686
29991.114398599326
29992.68113450747
29992.544316506413
29990.667590161855
29993.70215269587
29992.910004771173
29995.325802466064
29994.600784372375
29997.2009965016
29998.08276893031
29996.265089843193
29996.979333538366
29998.963252107194
29999.59217389156
29999.374154425026
29999.054117899188
30000.274456092888
30001.01214623976
30003.029648303193
30000.635119459475
29998.46648532209
29998.662181671738
29998.63706408487
30000.582927940224
29998.148450509372
29999.704620385735
29996.498723116605
29996.95077479193
29992.876109640405
29989.912438711493
29986.56512832343
29985.985538345674
29979.37439104774
29977.337022369826
29975.221240710824
29977.905419419298
29977.206851940562
29981.362088668033
29983.23277263232
29987.21499723534
29991.735967405475
29995.64123662756
29993.07479230512
29995.55275070415
29994.609759328825
29994.426759302005
29996.52195157155
29993.96369172316
29991.048789528835
29989.09800412276
29991.645102564893
29991.51742071046
29994.680707816027
29993.487911802335
29993.376899866114
29994.203214181252
29993.39814236228
29998.92941152013
29998.33539252688
29998.481253979975
30000.360791041516
29998.74913131526
29997.120684217174
30000.25438638023
29999.571207564804
30000.12724415802
29999.021803385196
30000.61549149246
30000.590183161414
29999.437017337397
29998.00190282683
30002.40783908892
29998.212743207056
29999.60642368375
29998.571032969307
29993.90563505406
29991.5276284892
29986.907652007973
29985.678389198572
29980.285277048704
29976.92682508623
29977.158087993226
29973.610143683825
29977.249481683266
29978.544283480103
29982.604411657652
29986.052050304796
29990.307477539107
29992.915117176603
29992.245584765526
29994.452311063913
29994.483738364615
29995.331903153405
29993.189532209482
29990.93181518038
29991.917146864354
29991.788683851617
29989.5872282523
29990.966580799803
29992.486379200385
29991.876580673164
29991.90227866089
29993.81198957695
29995.692584120196
29995.616000315335
29998.496123356832
29999.488291032212
29997.27199096531
29999.747406134196
29998.363410937753
29997.473443283823
29998.703025255752
29998.301947832842
30000.074154022874
29999.522370331557
29998.89164236102
29999.94275156099
30000.08168763147
30002.855725877955
30000.54961687379
29999.577491631935
29999.488742323963
29998.234510336562
29996.766470647348
29995.193363509374
29991.332143958512
29988.726285735138
29983.618104775705
29981.504567159885
29978.88852681095
29973.885747591485
29977.094832933206
29978.403585536304
29983.0772038454
29984.64328333463
29987.23594723273
29990.198652005376
29993.41054401061
29996.45621514228
29995.048279319766
29997.37789082763
29993.835865423032
29991.210420453124
29994.02295662918
29992.43444490077
29992.14115808175
29990.665311409633
29992.19851600003
29991.47494581077
29993.18520507652
29992.814860340208
29996.29899231829
29998.685227230482
29994.3187122242
29996.630752781402
30000.284469531838
29998.031301885345
29996.935315089635
30001.748112099136
30000.381963012045
29999.891518060027
30000.86058397589
30000.54301453185
29998.817657443207
29998.970187475064
30000.315071718007
30001.088545166873
29999.46693754658
29998.08197103153
29997.523081779527
29999.056985934585
29995.577605916893
29994.18498467029
29990.449348549548
29986.930545274823
29983.994027012035
29980.089827110085
29975.954059541822
29974.214626024503
29978.40597599058
29978.52806501452
29980.38958603255
29983.23247838487
29988.412194380187
29989.92120799866
29991.4434555673
29996.602269277253
29993.765159039387
29995.631853832503
29993.405658666346
29992.469090321323
29991.288830076428
29994.823330332954
29990.348999791706
29990.396699955694
29991.06531524738
29993.95920039996
29993.42622470904
29992.77263422369
29996.419782247278
29995.04956403582
29996.836013137
29998.50622527335
29999.03826632643
29998.247564346024
29997.583279146937
29998.07431891113
29998.896784535245
29999.793038458305
29998.289736194205
30000.826085885852
29998.11420105356
30001.25385878375
29998.46322332796
30001.614540624243
29998.68294026771
30000.262178741606
29999.42413365021
29999.681857051964
29995.132480602027
29998.88518819267
29997.163053903758
29992.330430775775
29988.901413053678
29986.007370705396
29981.8601227793
29980.190820802825
29976.872089018896
29979.73578516837
29976.91106454165
29978.65102978483
29980.26726607381
29985.617091218857
29987.330532244956
29990.828621046956
29992.94545069318
29994.67559150132
29997.316982200555
29994.024276297903
29993.85362070027
29993.37809325682
29991.99848069867
29992.191554070232
29991.670845677756
29991.645675201744
29992.264480793307
29993.29443465972
29993.032333970183
29993.064510514516
29993.913327008435
29996.61586135643
29996.386669215055
29997.354572754466
29999.33700284657
29999.008509310755
30000.45466697422
30000.203073041244
30000.37293464603
29997.257025500843
29998.895139787637
30000.038359666778
30001.8782286404
30000.254534339532
29998.042707258013
29998.95113051714
30000.186134892567
30001.46057925001
29997.57089286914
29999.119183571107
29992.955489923374
29992.896453670983
29988.948630177674
29984.728592471613
29982.388820862598
29981.075487150407
29975.963380706384
29978.14052499907
29977.642296285914
29979.268677295466
29984.877680593992
29987.447993065012
29988.77225882241
29991.797611673857
29995.57198976333
29993.463622228486
29994.447232770202
29993.85867682282
29994.04561956887
29994.42037768971
29991.4380355659
29992.479244715312
29991.089172237807
29989.625907773607
29993.926312007006
29991.28056024903
29992.402433219562
29995.145249846773
29996.831844404536
29996.365657156002
29997.44304083973
29996.91853274772
30000.43177841267
29998.669367290397
30001.61148089077
29997.863277571225
29999.745046121985
30000.277880635986
30001.258027104133
29997.400978393445
29998.0321560987
30000.4144949739
30000.346451764366
29998.999479851598
30001.46316085899
29998.10437976962
29996.102580425806
29995.891019867795
29994.430988765987
29991.827275134045
29987.667388574224
29985.487708044333
29980.945098597505
29979.49106613517
29976.897713534312
29976.08755915013
29976.77904823759
29978.8110908271
29983.533596179426
29986.079408054324
29990.09191145087
29992.603763695533
29993.137259235773
29993.584655113205
29992.353154170032
29992.531630812777
29993.010428362446
29993.572566909595
29992.817858417893
29992.278676260525
29992.142749217703
29993.000916129644
29994.628227874127
29993.45329760235
29993.711117592728
29992.688204099253
29996.675902503066
29996.99955485733
29998.291670915867
29997.14352992501
29998.32345066639
30000.242651616398
30001.293510110507
29998.691480221572
29999.61756033967
29999.0826183728
29998.799964794995
29998.95331868492
29999.6855168361
29998.03230640754
29999.09404017032
29999.177749736366
30001.221808752052
30000.46944031418
29994.41188857437
29994.57842560044
29995.027591126076
29991.67234167899
29986.35714656992
29983.871296289344
29979.956856782715
29975.786869933923
29976.825308517833
29974.287224891275
29979.937374492314
29981.807647956924
29983.914025630827
29990.92233242425
29991.58677945959
29992.506688846785
29994.043814321878
29993.982536029704
29996.27365843895
29993.90671602875
29994.567219143806
29992.830289971753
29990.99285469911
29992.25234789301
29989.964897223865
29992.084733418807
29990.387267886366
29991.507380003528
29993.202872076992
29995.166467956133
29995.935708787623
29996.74709273845
29997.596674380136
29998.897862934406
29998.084089315802
29999.657026766992
30000.11436054321
29998.8077752417
29999.66306628472
30000.15493135307
30001.51670421965
29999.20231756674
30001.718641461463
30000.70178868403
30000.836337998768
30000.917736384497
30000.68606338788
30000.161154059206
29996.434468703035
29999.394147620984
29995.50774515597
29991.175358090593
29989.72652710401
29984.844823197847
29981.059075525234
29979.211487870863
29977.35833214475
29974.831361948527
29979.419329322343
29979.895026952043
29983.99759001717
29986.045281408824
29989.77836844261
29990.847000097856
29993.447542971782
29993.357494775937
29994.064369520333
29994.131219150637
29994.202332581444
29992.686489489162
29991.702425593972
29992.28040184227
29990.918559552723
29993.768302937486
29992.44505779891
29993.166605058123
29993.19826395516
29994.694428407034
29997.01556421534
29997.353261146516
29995.754876686642
29997.87615401525
29996.540767586434
29999.41559915662
29998.82149249929
30001.32750129574
29999.524929055886
30000.631797180933
29999.386091036165
30000.85167990057
29999.456898543667
30000.099776326464
29999.98736930822
29999.930274205253
29999.018041390747
29999.206778675896
29997.392007762723
29995.2867095414
29990.97069017079
29986.486599280957
29986.261159666454
29982.147676085016
29977.782109726257
29977.160805126616
29972.38031257794
29977.177013624634
29978.21105256161
29984.245564177472
29987.771958945646
29990.372818260934
29993.48024776306
29993.488324359114
29992.36112119606
29994.89828374268
29994.441841945583
29993.60637300668
29991.461526726474
29992.208543316377
29991.957560791845
29991.245958806423
29990.756528036807
29993.287307422892
29992.78091509663
29994.089981885085
29995.625692611295
29997.17086790252
29995.465891765838
29998.52978650749
29999.030098944528
29999.65545991357
30001.692779538513
30000.316868128593
29999.119256761798
30002.65723810761
29998.295712123767
30001.429924039556
30001.04008476418
30000.37597693958
30000.131042367164
29999.658824592738
30000.57946232717
29999.988088766597
29998.388936905187
29997.581422810712
29994.760954785732
29990.373964131224
29991.196924260308
29986.229921117752
29982.88713391125
29978.610270128593
29977.633370263924
29976.7967295757
29978.461334234547
29978.824449963
29982.17086896131
29985.779513517653
29989.188479952063
29988.984223192736
29994.60695696786
29994.565519663316
29993.724967640464
29995.859728873562
29993.65435457167
29993.440747055814
29992.705925522827
29992.25311808457
29991.078288345394
29990.614877553737
29992.057577733893
29995.229349360878
29993.706482575755
29995.007704044747
29995.880420463473
29996.314221143126
29999.539667685433
29997.070082221802
29996.338662986178
29998.9417233423
29998.631912052326
29997.74346088033
30002.28343712051
30000.820485733657
29997.661138778793
29999.97611070189
30000.101546400976
29997.72536511207
30000.692611854753
30001.182955138593
30001.45131458378
29998.61591181744
30000.174614431195
29997.095691952727
29995.048202167403
29995.24517380784
29992.585488930148
29990.02772004102
29986.42043340369
29982.490072279383
29979.171635893745
29978.8152512975
29978.426184910324
29977.155016383866
29978.776172115806
29983.506903716938
29984.328094398723
29987.49431440758
29992.05451291862
29992.499393598355
29993.975659673935
29995.706217712366
29994.924525507206
29995.93707286861
29991.9084119864
29993.40124438581
29992.811986462577
29990.121511132915
29991.883055656577
29990.64069508221
29992.134166898482
29992.05886048017
29995.403568374477
29997.789729855358
29996.329053930054
29998.499884835754
29997.45883417831
29998.347680183237
29999.264366517527
29997.40912760969
30000.74283930814
29999.30924162977
29999.100898866312
29999.527634646205
30002.128282078073
29999.714708042826
30000.135223343183
29999.908175461558
30001.517604348086
29999.097145083528
30000.92076574053
30001.528082034554
30000.975727316385
29999.744517798244
29998.977023059877
29997.441238641957
29996.012601938175
29994.12441638493
29992.392411640943
29989.551123975358
29984.325010108256
29978.98835519846
29978.28350182103
29977.174911194295
29976.65029526557
29979.32180036074
29977.269452843513
29980.401222845026
29987.322057437184
29987.200536324857
29990.582867604877
29992.647658352806
29994.291824964013
29995.294603363327
29993.099039159344
29991.842783413256
29992.33204441967
29990.36511602878
29992.50113294703
29990.196423317462
29991.262341943933
29990.716571445842
29993.637008450714
29992.23058873413
29992.952322630816
29998.4926616809
29996.918062801004
30000.164348086895
29997.910412509154
30000.70002906242
30000.25431829625
29998.58219686372
29998.806638574115
29998.939920069468
29997.805265619787
30000.55716958717
29997.928363155934
30001.761189912682
29999.49106712818
29998.60725393697
29998.093087419933
29999.219674085984
30001.717480699957
29998.732925590073
29999.932440398352
30000.272238190908
29997.59340767351
29998.589871341974
29996.667078274513
29993.256170526634
29988.162538507997
29985.782752903808
29983.115426876153
29979.202755588754
29976.602641774516
29977.227908527
29975.188604842784
29977.542233499826
29979.948365605276
29984.60902725053
29986.559044371257
29991.31480046766
29996.06306165496
29993.926660324436
29992.0102414308
29994.617115512086
29992.956001199866
29993.284020532363
29992.957839437095
29990.145879904205
29991.93491234021
29994.703999411868
29991.362165440285
29992.684250866885
29994.122670725872
29993.858133589758
29996.232773326625
29994.69022667183
29996.37113239973
29998.184492099255
29998.688275529646
29998.564314257674
30002.248492897925
30000.73076534892
29999.13530987156
29995.96708247724
30002.31927799686
30002.792422449926
29999.167445524425
30001.516355799307
30002.31399499334
29999.824180000847
29999.06637629808
30000.497070997597
30001.63507360201
29997.510295874778
30001.393906644054
29999.13895178846
30000.895419677086
29998.95825398953
29995.791276990236
29998.146372107734
29991.19161575841
29991.359679257457
29985.58244844972
29984.410128370597
29975.62730668165
29976.761059303106
29975.04795611607
29975.141775415286
29979.69878927789
29980.733760853414
29985.440583379193
29988.43811907584
29993.464710108758
29992.609383239702
29994.32769194123
29993.297382360066
29994.70613365569
29994.713350266247
29996.590392183713
29995.86900900768
29993.022941047686
29989.317803371134
29991.50770546084
29992.6649824428
29993.66558770072
29994.0314230196
29992.430509033667
29995.896651610892
29996.494703529606
29998.01117118652
29998.12774048941
29999.501609140796
29996.4967482279
29998.125388470013
29999.385396870784
29999.837640703623
30002.277978674778
30002.088434833855
29997.778290953236
30000.24307773784
30001.151882507063
29998.4278793134
29999.452580753536
29998.398543465173
29999.20595152588
30000.934583118473
29999.56805886929
29996.96786436785
29997.35154929763
29996.17692722509
29995.945148375944
29992.956600457215
29990.27595398567
29986.95857151764
29981.769593179608
29980.366524337416
29976.10936990317
29976.733863347054
29976.60847182688
29977.163992986047
29982.48195316572
29985.438628142
29987.667575835454
29991.076318896587
29994.33169383704
29994.679233104747
29995.064302229614
29992.58657006593
29993.867654778693
29995.435902768484
29993.570714026486
29991.42226952475
29990.705337676176
29990.865515022917
29991.827820408504
29992.29964335646
29994.957025557567
29996.483074344393
29994.604129814154
29997.967614473895
29998.038420692712
29998.276562831372
29999.971638626335
29999.093528588633
29997.52698481855
29998.554457569768
30001.25465064624
29999.059772444904
30000.477481019167
30000.031342150527
29999.587920445116
30001.83404873206
30001.098145593834
29999.91165794499
29999.503394718646
30001.5735275931
30000.304146437353
29998.300820852917
30000.623467170397
29998.835875171084
29995.328489648557
29994.027815874862
29994.41288441723
29989.630509933246
29982.956026490447
29980.986864569953
29977.03050437847
29975.314382219432
29974.924729776852
29974.636982913642
29979.90107274119
29983.365901413774
29986.84031111699
29991.60589553641
29988.984427656203
29995.409719414492
29993.445324279233
29994.302588633396
29994.514320645772
29992.613669895123
29991.608493727337
29992.60782194004
29993.62099564061
29991.344261114016
29991.783741070987
29991.310162799182
29991.77074374879
29995.08314628029
29994.19329959425
29995.20709825003
29997.07504825511
29995.81384928857
29997.221931513563
30001.209240633223
29998.426521890895
29999.675264167505
30000.231870670494
29999.99739313713
30000.07801365858
30000.877957772005
30001.9363294558
29998.414334939203
29998.994043740186
30001.0128907609
30001.942405743393
30002.184652941796
29999.80518265152
30000.571681892572
29999.279653023288
29998.94621056414
29999.816639094268
29998.88741314594
29997.714758261467
29996.463253088208
29995.470369273145
29995.722866061165
29990.66534275209
29987.15569449289
29983.683407097524
29976.829067087747
29977.333426966034
29975.784383817492
29976.674730611012
29980.021906915736
29980.947515543754
29988.416898257135
29988.957152935378
29991.601391613054
29991.433386861496
29994.838197662255
29994.66369861858
29994.004620233325
29994.034226221254
29993.2594927881
29992.383323971666
29990.764079549313
29991.910945113388
29991.82052455084
29991.895065291268
29992.794189900105
29993.01186841568
29992.39307664922
29995.80892947288
29997.414189256047
29997.894185728233
29997.176420142514
29999.883238517883
30001.415490614057
29999.2961190191
30000.40804342683
30000.239686207653
29998.033374399416
29999.893556417865
30003.022074148743
30000.14430520632
29998.88650552061
29999.554664590334
30000.731577118662
29999.95446060871
29997.273616882474
29999.224299048015
30001.02142041867
29999.496708546358
29999.249714519003
29998.977577814
29999.00959266442
29997.910070059555
29997.254350862964
29994.684272438855
29991.94070680303
29987.566138770715
29984.974396535363
29982.587654674637
29979.697747773873
29978.128049074014
29977.383303346243
29975.695625957134
29979.984894364577
29984.47082203345
29986.947280151577
29991.410297188704
29992.82197722317
29993.144807934987
29994.18671679937
29994.257994800726
29997.208083462236
29995.034336256183
29994.367985431993
29991.91469250257
29993.48908151736
29990.97924305352
29991.23477601448
29992.011538519484
29993.773160345845
29992.328509939543
29992.497235595878
29997.11635656985
29996.720990815767
29996.94074078056
29999.02325846631
29996.94474807824
29999.567615950276
29999.05529848728
29999.304375211857
30001.198142685887
29999.82005103403
30001.29668249821
29999.18990943776
29999.33652414049
30002.078900579105
29999.43712153105
30001.52579911982
29997.74163146851
29998.54893185543
30000.158787271743
29998.798970423883
29996.98559487464
29993.327390021066
29993.63531436176
29990.449074200045
29985.76813192428
29980.95063955925
29978.909031524425
29976.31792388858
29975.646281597943
29977.78917590641
29974.809697585086
29979.50699543461
29984.825241847015
29988.67771628497
29990.341084390537
29992.81294231105
29993.808459309304
29995.68407948535
29995.908478023433
29992.538405014762
29994.94924259318
29989.88473901935
29992.00403920753
29989.18922731928
29993.589138561918
29993.776443353785
29992.87896081173
29993.18743917705
29995.159892095748
29994.761493319016
29994.619509212796
29998.119808404474
29998.16530433206
30000.258757426676
29999.35598937022
30001.245839577343
29998.331731441373
29996.98157797473
29998.45164179302
29998.292772721958
29998.39268667516
30001.674036159453
29997.342922513675
29999.67280261938
29998.85906142348
30000.03107132486
29998.754481458243
29999.60429034726
30000.184828219913
29999.745277042624
29997.650873393894
29995.52919090316
29993.796300376936
29990.784147591432
29988.1909408135
29982.74618517782
29977.744967830928
29979.680155277456
29977.71573496199
29976.926183484225
29978.31595472597
29981.174473880517
29983.856190742466
29987.05986873087
29988.121497313256
29993.741779568234
29993.945211129558
29993.850989410672
29995.261017619872
29992.332024911044
29993.73391342001
29992.541787461916
29989.653094725418
29991.53624390493
29988.67191245126
29990.665869739012
29991.88267243558
29995.22509011883
29994.126528284098
29996.08336193475
29992.442277366452
29998.891066894546
29995.800177596455
29999.462781886068
29999.415211312637
29999.339701651068
29998.967565927138
29999.328241899944
29999.118669341824
30000.2881546575
29999.266789780173
30002.291619128155
29998.612531521594
30001.517070595568
30001.316286884237
30001.47624722421
30000.433172769986
29999.93198606093
30001.556737886305
30001.460904345648
29997.97379527995
29999.89364109258
29997.228519374334
29997.711862685366
29996.37102521226
29990.71725495158
29989.78796869345
29987.0427724268
29980.065525100417
29977.430861101882
29975.667634730875
29975.596758751155
29978.2165435952
29979.198891943317
29983.098477238585
29987.298342839014
29987.464980917714
29993.560478276522
29996.98340046133
29996.661214768934
29994.28852488507
29995.86303942313
29992.39118311514
29991.41452596056
29991.522825251344
29991.388735841323
29991.64768539575
29993.61189321145
29993.866443483872
29993.84486787464
29993.91654238495
29995.242188134667
29995.46549881284
29996.97098364617
29999.311497376293
29997.91353708126
29997.579615012783
29998.13531094049
29999.378890734
30000.85780601221
29998.2924216509
30001.063723696032
29998.30918641729
29998.69260736122
30000.629941095558
30002.715222172243
29997.799795772207
29997.791682803876
29998.53301268182
29999.43007875926
29999.0474657297
29997.537639965725
29994.375681486457
29990.25162640107
29986.63791241889
29984.8251585569
29979.62947404464
29976.255970486225
29975.601111518183
29976.435580174835
29978.109179665174
29982.725997625817
29983.380933453765
29986.922814499765
29990.845753460835
29991.532719156705
29992.66157924579
29994.67259930403
29993.332734476993
29995.498090109584
29994.368441461796
29994.31380542263
29993.57893152514
29994.06683085864
29990.835685339836
29991.892464201264
29992.37204912555
29993.517817620952
29994.423832742395
29996.832465217518
29994.914172160174
29995.520481088777
29998.04616175996
29999.238302169546
30000.590294800786
29999.017565829425
30000.011960875494
30003.011471277438
30000.563119766826
29997.649645448866
29999.72368208791
30001.414823670446
30000.070136268216
30000.789478663293
30000.5726062678
29998.582405824105
29999.262824047528
30000.273280111414
29998.18064016736
29996.333747565892
29995.919884203402
29993.045735389733
29991.816108547755
29987.050484761385
29983.20733697827
29980.458703293993
29977.695466915233
29975.962418686424
29977.455913576097
29980.22284461573
29982.16979931874
29983.810110277518
29988.158722203483
29989.932932584346
29992.6482073964
29994.665578132597
29995.53056195464
29993.051545643168
29992.32584655691
29991.824927572972
29991.52015628337
29990.92385536758
29991.753199835206
29991.695421542037
29994.07843746002
29993.366468601685
29991.25311681062
29995.320427173163
29993.130880792683
29994.67134851698
29996.927718932373
29998.812201791705
29997.566131907315
30000.655490519403
29998.057177591803
29999.267501685474
29999.601699422565
30001.00818601985
29997.112228779737
30000.954612032612
30001.849570949616
29997.99447223177
29999.803831778576
30000.22855658081
30000.33662329333
29998.27785390122
29999.160660562735
30000.33512294075
29998.95383380368
29998.409454661127
29998.691463690535
29994.848976466066
29992.781846495844
29989.994926818217
29990.65787321231
29982.546876612454
29979.739611615798
29978.160676237705
29977.924959314474
29975.627558309494
29976.97484232376
29980.919443654726
29985.604006168644
29986.666850196038
29989.058627821814
29991.724100261767
29993.729170425024
29994.09594925687
29994.550493239272
29994.26884015672
29993.758861160604
29993.436421309536
29993.945127958916
29993.61479578708
29991.03962115676
29993.199121357182
29994.61311394409
29994.007561208105
29995.08540868282
29996.06287009998
29997.419221902266
29997.209807498828
29998.976280955412
29999.85841840935
29998.452227201884
29998.70442977467
29999.79866489689
29999.035207165078
30000.269766469235
29998.818747654914
29998.99172433065
29999.97806957188
29999.13743612635
29999.501084746804
30000.113848000386
30000.26268985022
29998.20987586302
30000.094677749017
29998.66515871737
29999.129605283528
29999.753282363286
29996.89695527304
29994.9378848367
29991.024991667477
29989.84657180377
29983.974113721313
29980.80048448363
29977.97720908231
29976.109419948323
29976.561807964594
29977.62203383663
29978.624087787168
29982.914990416553
29987.849050404206
29991.1564545587
29992.17508349342
29990.956558271897
29993.930247750803
29995.71358695781
29993.082865250693
29994.453675083278
29991.192138595165
29991.38671975573
29990.46415058822
29991.37275782112
29992.06554539228
29990.941335166495
29993.16728046917
29995.56881265239
29993.792999137026
29994.386571401785
29997.110901707056
29999.41055353127
29998.842007901854
29997.225128714133
29996.92250199843
30000.43549143173
29998.636169276964
30000.910864015717
29999.818188245565
29999.742786706352
29996.56374263156
29999.723617747077
30000.288267400854
29997.491503672423
29999.660752768596
29997.76152467065
29997.83932774721
29997.32762298394
29999.446183101107
29997.33831977613
29994.231404125985
29991.02970958207
29987.61527024729
29983.634347422834
29982.510796174924
29977.327399296508
29976.41629581334
29976.794207418585
29977.561909353662
29978.874610980667
29980.32132322812
29985.466998251963
29988.634703918553
29990.538775082958
29993.353663286238
29995.146033152898
29994.01306143764
29994.436338166623
29994.99319249727
29994.385199974684
29993.170281343915
29992.992219548854
29993.34007905614
29991.174882685802
29991.01034655939
29990.78800335987
29993.562094775123
29994.553293243996
29996.58166235869
29995.49561295676
29995.919613513204
29997.23733167219
29999.954630331144
29999.024277971832
29998.54680508537
29999.49509377401
29999.84890252455
30001.05399069465
29999.080429804708
29998.781521357203
29999.438786762395
29999.39116999894
29998.449706554373
30000.867997572976
29998.426740742685
29996.449487761645
29993.25970165894
29991.158924391355
29989.909303711604
29982.76828951734
29980.43676466404
29977.5641870418
29975.942741743776
29976.031118469797
29977.637674440095
29980.53186963067
29982.298082518537
29987.0378413513
29988.790200990756
29990.824215283174
29994.61325590979
29993.93494211187
29994.94715690744
29994.910111257395
29993.774819425747
29991.814749139452
29991.963183770287
29991.67999977708
29991.492956987662
29990.02844130646
29991.218723564456
29994.40227094876
29994.451304201473
29994.90813005273
29998.287011339162
29997.61005238845
29997.92117090382
29998.773858917706
29999.05636319427
29999.396997012846
29999.818048716843
29999.932650813043
30001.036170502775
30000.78695381525
29999.573001202723
29998.01658940665
29999.77434966571
30000.329676494264
29998.52466914118
29999.476802296347
29998.915747534167
29997.582154094027
29999.046165263615
29997.33216441487
29995.651629377528
29994.636777446307
29992.54395484052
29986.717874971073
29982.09263567145
29980.77398701101
29976.941629719277
29974.02298646352
29976.483691324338
29979.661553486272
29982.24305126387
29986.537008730902
29987.56134854485
29990.41442767047
29993.351626685
29993.210971753055
29995.368607965585
29993.35661647384
29994.055735273574
29991.500525323958
29992.407190513786
29992.782637395383
29990.784756652418
29991.985462351637
29990.742648967964
29992.52261211254
29993.2235098262
29993.22349207574
29996.159856156773
29996.40816759492
29995.99818882342
29997.10004182104
29997.650492563505
29998.857947325338
29999.478894222426
30000.181017904157
29999.260885038067
29998.038630333842
29998.986905883346
29998.84501230999
29997.91699939853
29999.629318103132
29999.266746044923
29998.779555391826
29998.990489786385
29993.331625852174
29991.776621913887
29991.308303087804
29985.028158567286
29982.931386714463
29980.81642133217
29977.196769860246
29975.62182227565
29976.397053380653
29978.58155471669
29981.50055642537
29984.195040355902
29988.51135482303
29989.940791007346
29992.15478126711
29995.33173693552
29994.054871991975
29994.357773160053
29994.320428799783
29993.211695256865
29993.8972875913
29992.137285188564
29990.61335071605
29990.851947387586
29993.08712686921
29993.573760009658
29992.89552379774
29994.163516380948
29996.862428588724
29994.95338828415
29996.60567664797
29998.18623456876
29998.294982412033
29998.327184226426
29999.488371562133
29999.365369222844
30000.345988296915
30001.610052820786
29998.97275106715
29998.493205215702
29999.620285405446
29998.760397547478
30001.954800156956
30002.13513867604
30001.058876333078
30000.513024386568
30000.774920017124
29996.97765631684
29997.5291958609
29994.34362417539
29992.981008847786
29990.407007965812
29987.347446886837
29983.578700640992
29981.10637084983
29975.712310223007
29976.64899413233
29976.289411615202
29979.277491799825
29980.911684823233
29984.169443745257
29989.189960549167
29992.34514071696
29992.412947829787
29994.37571121051
29995.965419630378
29994.308057682356
29993.30529254754
29991.59359311475
29993.98353006818
29993.4839957176
29992.40452094674
29990.077702706785
29991.91579275527
29992.26373379257
29991.580777389132
29993.58184211011
29994.535980036635
29998.533601780342
29996.38983657937
29995.612780879488
29999.956324496186
29998.14227093449
30003.142972210502
29999.6237958697
29998.995802469417
29999.707047089647
30000.90792636452
29998.76975724387
30000.21410892878
30000.651222263685
29999.455197265237
29999.065957922263
29998.00497244374
29997.36457373745
29998.680780257124
30000.269678360404
29999.088317211066
29996.337630730923
29996.311802926262
29992.934729394834
29989.430731657114
29985.982286877526
29983.207760530287
29977.99081261166
29975.54487815336
29977.71269305151
29974.829754906204
29978.116487866344
29980.056298104024
29982.52247349617
29988.849129915612
29991.85295866154
29995.1698982661
29993.608948639412
29992.59247845038
29993.86338687411
29993.289601644006
29991.86807275182
29995.096152099584
29993.8031694652
29990.939792976867
29992.09749361506
29992.807106879216
29994.13511688578
29993.585431168583
29993.15917599206
29995.103090392484
29996.448050295854
29995.618334548275
29997.020050979958
30000.20999065531
29999.79702859859
29999.93031379435
29999.811806493653
29999.423614619463
30002.153193833296
30000.554682494214
29999.236461814417
29998.72883630917
30001.220806303514
29999.99456735288
29994.857137130548
29996.63223665576
29993.875385798674
29988.663652693995
29985.651800081712
29982.272165469632
29977.784584403566
29976.43536771113
29973.58950559198
29976.422951260083
29977.881008371092
29984.785132181598
29986.774054759775
29987.49150818644
29990.07161035213
29994.094363803742
29994.68359438037
29995.33953605244
29993.178210078444
29993.968138522934
29992.75384245296
29992.219266342912
29991.164091534156
29990.41903366266
29990.865752896414
29993.57298315521
29992.941125523357
29992.638293415515
29993.34611019968
29996.227568735252
29998.1505515956
29994.99354313142
29998.98127021006
29999.877262330607
29999.210567348397
29998.997173033975
30000.04532434117
29998.550112371457
30000.832608867186
29999.606606499477
29999.05222742121
30000.61052706563
29998.340249688532
29999.698431618574
29996.338924821397
29995.368288124075
29993.805151837587
29989.479972647867
29986.28724506201
29981.883624750008
29979.238059105213
29975.143059831902
29977.38750524058
29978.3317267225
29976.83761361804
29980.37919291551
29986.34836487246
29989.01403416904
29991.368434193475
29993.329565998527
29994.54015232686
29995.063727298933
29995.412654825424
29992.969032615234
29992.40076984907
29992.80868166265
29992.458822728335
29989.70335736057
29992.465886895658
29991.755877807584
29993.809398683825
29992.7853095306
29992.680803357478
29996.030542441724
29996.058716276988
29997.732782411178
29996.11093980407
29998.67162283361
29998.88295482806
29999.127758699717
30001.2103696261
30000.063660325617
29997.72685980628
29998.531949437805
30000.837792403356
30000.714716232796
30001.10619989151
29998.524729585806
29999.830520537464
29997.920997699926
30001.152515096474
29999.582447549245
29998.046794219612
29997.321741686515
29992.488046694907
29991.92795314785
29989.47185235079
29986.045280248003
29980.66384744973
29978.657487993507
29977.809208680326
29973.884080117226
29976.47813037514
29980.771835072235
29982.832853033742
29985.37625480169
29986.739898854103
29993.892999314685
29995.175591159572
29993.960151273033
29992.015366931537
29993.024297770087
29992.4959806327
29992.018653765273
29990.345753898942
29991.77174594151
29993.081448088462
29991.601048614015
29992.644934256685
29993.70895097154
29993.653858877908
29995.585857456634
29994.709724654065
29997.644917368045
29998.826247362507
30000.67817764131
29998.92860127979
29998.41128929326
30000.46563693181
29998.322539158202
30000.241216519596
29998.791006517597
30002.252684792737
30000.35022043882
29999.779534416808
29999.88774971053
29998.873463762317
29998.01112863075
29999.64137110229
29999.461262390076
29998.45464983116
29999.756225382414
29995.147981629892
29995.040313362075
29992.825047026345
29989.881638932562
29987.145074743014
29982.883298958764
29978.569313052838
29978.024546056447
29977.47011168975
29976.496050825048
29979.250407715397
29979.447491056548
29985.84499106133
29989.452474043203
29990.829254198266
29992.12858216924
29993.48194796982
29996.51628850621
29992.733192789823
29995.33787639457
29993.743508340067
29990.725570721726
29992.438663654295
29992.458999187653
29991.073704665057
29989.456531821845
29994.021912860237
29993.366083404882
29995.776383703847
29995.305204035907
29996.62866987801
29996.8507326443
29998.590600481628
29999.942217136802
29998.420477137475
29998.99473814339
29999.700314393765
29997.60536192433
29999.93725102327
30000.270425984127
29999.431158109404
29999.00594619713
30000.250147248025
29999.60847785731
29998.967106438322
29998.14589082488
29998.963740226296
29996.911937169316
29995.946620974322
29991.466601866457
29987.74736954202
29983.19997045992
29980.29747073241
29977.960409606974
29975.253804189862
29975.290213829925
29975.534430526648
29979.185645832396
29984.0314884149
29985.667639586893
29989.09967930394
29992.20858860722
29993.349049661825
29993.711463877295
29995.29019613903
29995.620532594025
29994.879476618684
29991.598805272195
29993.440220839388
29989.858951836024
29990.785529164226
29991.47824882056
29992.524212444278
29994.039574512808
29993.75148836496
29994.056316833892
29995.021739731877
29998.30408255992
29998.79337489664
29997.419877096654
30000.275898044947
29998.37643206408
29999.75658816586
29999.924963065547
29999.699977955133
29999.18307533349
29998.334546814032
30001.00558417352
29999.12302579065
29998.863830423405
30001.091408682816
29998.82975527115
29997.95455472943
29996.857269959834
29995.82454937071
29990.597850101614
29988.890025288114
29985.980909653903
29982.18338484096
29978.45378809774
29976.915006974934
29976.93173020676
29977.0144429672
29982.05733209213
29982.796074218553
29984.194650392572
29988.29739168239
29992.16637087631
29991.561621359357
29993.7455033588
29995.63967103626
29994.1920034951
29993.971116456993
29991.508785495636
29993.04898700288
29990.830295472595
29989.90173632509
29991.497906062792
29991.55284693944
29991.60854513212
29993.487026931412
29994.657052511604
29996.76348895578
29995.655139350525
29996.792492829107
29997.66961897392
29998.066159423677
29998.77327902364
29999.593921616673
29998.715728266925
29998.795571930237
30002.629446048326
30002.994242994966
29999.58489185802
29998.586942124246
30000.01125140651
30000.21304689075
30000.436916722636
30000.68024417819
29999.183797476075
29999.313066487026
29997.493995648994
29996.34534422787
29995.465648243535
29993.82615345147
29988.157945084244
29982.78526516325
29979.88287147369
29979.889639177432
29974.874888143127
29976.86998678355
29978.70321748777
29980.152618093005
29982.94245284642
29987.20893293412
29989.58279579827
29992.78802948703
29992.186109542992
29995.860903002886
29996.779931294444
29994.777131208
29993.10273663574
29990.676439259354
29994.097015804342
29990.42269442827
29989.99133051716
29989.553090984544
29990.30155612069
29992.843995040363
29994.214224162824
29994.985099614976
29996.801098853357
29994.99819460993
29996.141673078127
29998.863706189397
29999.065368248586
29998.35445920285
30000.820828720334
29997.567753909243
30002.673725568337
29999.55370126631
29998.514633798513
29999.509274557047
29999.668589969755
29998.479113586138
29999.328470009743
29997.680773128763
29997.04826411818
29994.554910471124
29993.285713558475
29988.247528386568
29984.41475886357
29979.80611406758
29977.218078704715
29976.84171423312
29975.856745891466
29977.17215370448
29979.088578750117
29980.138538282517
29987.766085046576
29990.82895869788
29990.268288988653
29991.97018270574
29994.680443061075
29995.37564914016
29993.474365738482
29996.91583538755
29992.507709105204
29991.830897119824
29992.985944762626
29991.57452554076
29992.37009583214
29991.654209337114
29993.21263154381
29994.33576537757
29992.529556666923
29996.171278360052
29996.931730138745
29997.045907038522
29999.597977707566
29999.006715867366
29999.437696368306
29999.210953122205
30000.000927783298
29998.900435824802
30000.046096437152
29998.97205620343
30000.75500994984
29999.24360367204
29998.02315548922
29995.712229931712
29998.103884837135
29993.177464870467
29991.021952283554
29989.734756740614
29985.0291034633
29979.61562695178
29979.581340355886
29976.72159434645
29976.33680354876
29979.11894811231
29978.37600560879
29981.115019933324
29984.339035363235
29988.727247105966
29991.304784059506
29992.897913995865
29995.143703173202
29993.060762804806
29994.68809144228
29994.505632201603
29992.746241680466
29991.522675072072
29992.2668505956
29992.590059079183
29991.058561747417
29991.77117690864
29992.984125051495
29994.163042727854
29993.160550559016
29997.75791711433
29995.37088094313
29997.442330299233
29996.32096430306
29997.822617217756
29998.81270449495
29999.37854323713
30001.062904346487
30001.1190190403
30000.137232356545
30001.198252075377
29998.128984899457
30001.428162597516
30000.576562698756
30000.822488754482
29998.96165509633
29999.893212445273
29996.070267067025
29995.8468200577
29994.825430714565
29993.14402476143
29987.49006326852
29984.99924520725
29981.304376075816
29979.533004981637
29976.60412025681
29975.87679554594
29977.720316017225
29978.723209440854
29983.577980834245
29985.94793646446
29991.710699975858
29993.445948674245
29991.934086149377
29992.65329926649
29994.24652506709
29996.698271847974
29994.286973639002
29991.850243872057
29994.58105262623
29991.659905965138
29993.48527540268
29989.88158478035
29992.364033184997
29993.758919649998
29995.05149993815
29995.35737311145
29994.28458235765
29995.998530017
29997.951242561157
29999.097796910264
29999.162383072
29998.034417712428
29999.42422482048
29999.049694102792
29997.85500245321
30002.442001557956
29998.80117997469
30000.04645286742
29999.73247542024
29999.68803450786
29999.4764880267
29999.37732054704
29999.875028968097
29998.742260302817
29995.326350640724
29994.463622941097
29989.488987728513
29988.014148152502
29983.73697830824
29981.746399935153
29977.685488967123
29976.013363771104
29974.869706474154
29978.00905503782
29977.041711844693
29984.010207860458
29983.73495041058
29987.96450694931
29990.688477300293
29995.737628358722
29995.714997849504
29993.568459807182
29994.89388774937
29993.311101891566
29993.58748921418
29989.708993348144
29991.95496632655
29990.054717975403
29991.261558516202
29990.880732404632
29992.644141526383
29995.176581855012
29994.92007345584
29993.706870918846
29995.322187977647
29996.655059190536
29999.01683202134
29999.240290677997
29998.58124509386
29997.381918505846
30001.54730507335
30000.200640407
29998.817782496557
29999.47367718545
29999.364241044637
29998.734307111743
29998.291647151604
29999.98397557487
29995.80236118498
29999.17615469999
29996.091019196818
29993.77828524895
29991.28542973108
29989.259568469024
29982.485067795405
29979.563757389747
29979.727853729844
29976.95552007552
29977.38726207855
29976.536160321426
29981.43866536423
29984.64515585115
29986.679737880364
29990.704768854644
29993.309191896762
29993.815331783895
29992.752220684713
29995.56734498918
29993.338503651987
29992.797327571643
29992.235341711963
29990.189458920824
29992.306894830657
29990.853581864973
29993.247896797428
29991.499720150805
29993.517161200383
29993.21733777999
29995.88916622379
29995.843388580008
29997.810396086046
29998.088886839283
29998.315337555097
29999.331832833745
29999.97481056373
30000.296964331028
29997.932194461806
29998.053583083256
29998.247092316724
30002.786770173057
29999.6092917365
30001.384311295395
30000.35620818856
29997.85596071552
30000.925276854214
29997.80372111309
29998.96011598899
29994.266566263283
29995.04012906474
29990.896812923846
29987.42787725058
29982.742275002372
29980.289308241663
29978.023051464737
29975.979465065207
29975.46051827691
29975.46480607125
29980.52769957018
29981.129015077662
29986.51827506029
29990.511830016527
29991.936808008926
29996.41511350496
29994.418857648743
29996.281895709253
29995.35175772995
29993.817587196292
29994.440812922356
29992.189394875037
29990.657774534197
29991.117916508516
29990.74818959758
29992.992729914655
29992.017416165858
29993.64328910868
29996.231027582788
29997.66059751687
29997.99806119836
29998.513519304535
29997.323914082055
29996.85497036795
29999.01090662447
30001.450074965982
29998.949631299573
30001.85166385925
30000.66504798419
30000.19214371577
29999.564126660134
30001.194769181922
30001.164365587305
29998.19940950739
30000.563314419396
30000.54093030223
29997.562590080892
29998.291211938842
29997.20350618776
29993.943502192917
29992.837115856633
29988.94900191951
29982.764273714492
29979.047306931567
29977.43010681147
29976.465161244254
29976.05166525416
29976.394649780043
29981.350414483586
29980.615814162527
29987.98216639095
29989.968991495803
29990.57980908799
29994.0415886648
29994.465701054978
29996.231894477492
29992.891784189247
29993.79970112938
29989.508356878006
29992.948033312758
29991.782871375548
29991.23199069034
29991.507999434434
29993.334536655067
29992.39954427639
29993.411878783027
29995.469092231306
29994.81250685894
29996.892819525907
29997.28309493424
29997.128886935567
29997.410678758253
30000.28144918389
29997.98812713414
30001.229637241722
29998.798768683737
30001.300181419203
29999.823544300307
30000.230684837334
29998.96518718388
29998.983171609056
29999.146648634585
30000.159911644852
30000.977347792355
29999.046897952365
29999.92594494284
29999.02143243208
29998.562813787452
29995.576319302087
29993.272933114342
29991.513204529478
29988.80692907896
29981.35746305974
29980.268056497283
29977.71145086705
29974.117077859944
29975.034767134377
29980.580887498432
29981.125090539193
29985.973631868867
29988.4848711478
29988.99256528572
29994.44768320906
29992.894558903183
29994.862779850366
29992.95422749279
29992.358228794194
29994.293718741978
29991.82301717461
29990.728909940124
29992.68247864459
29988.65788262277
29991.829386822577
29994.017310848685
29992.43171723104
29995.48633864749
29993.693444879875
29995.1612634176
29997.27295406635
29998.59060523837
29998.152702977804
29998.280999868188
29999.63107715714
29998.446016490165
29998.744108454794
29998.77874079837
30000.115508242237
30001.58054853204
30000.754084085005
29998.292451593825
30002.844276200056
29999.938899727193
30000.055296741226
29998.114562295177
29998.340343192354
29998.21301848433
29999.418290927322
29998.61566526543
29998.940853680448
29996.374093733764
29993.74973474545
29989.90432802421
29988.429618223046
29982.135020663012
29978.129587508723
29977.96323962785
29975.357585863178
29976.09561375882
29977.101857592643
29979.836068807377
29983.877718395994
29988.72863301077
29988.79543427529
29991.454760759847
29994.637906582724
29994.112399403515
29994.242873281615
29993.62359734967
29993.28137187077
29992.1674732066
29992.495404301597
29990.733802955026
29990.930639010858
29992.77700400943
29994.492731168575
29996.186003893246
29994.901773230988
29995.245320224698
29995.65533589873
29997.68911586542
29999.70367113463
29997.90620332191
29999.146427436088
30000.006852652336
29999.41919359583
29998.44706469269
29999.18597004366
30001.59153741626
29998.149749713113
29999.672885388714
30001.059717891047
30001.712081973754
30000.10484688641
30000.72045588923
29999.149884095812
29996.946633116142
29994.418461956015
29992.541903330795
29990.266689426426
29983.716281495854
29982.49193400131
29975.896068143506
29977.804034680517
29974.76580471516
29977.680916620346
29980.434395136697
29981.991773857015
29986.52070915629
29987.95297921789
29992.465071423725
29991.919315774237
29994.73303606554
29994.983127128908
29994.16452874485
29994.479706470036
29992.340282770554
29992.75742657028
29992.41424031513
29992.369869342576
29990.130299224667
29991.15883811859
29993.344994814524
29994.996368958557
29993.314675183337
29994.982600033876
29995.520292216126
29996.06801150073
29996.698512756262
29999.133078930878
29999.34088317581
29998.14098830302
29997.388165791046
29999.803088746074
30002.389889962487
29996.461153402022
30002.148268856625
30001.14156915911
30001.058253426312
29999.90514365887
29998.957295238888
29996.385264118144
29995.602116681177
29993.5840661617
29988.876448149727
29984.997696326398
29980.073134166654
29977.86782894662
29977.145217737638
29977.606660729813
29975.58368506639
29978.05836030861
29983.580813160588
29986.718133542094
29989.971155300642
29993.439953039222
29993.556646045385
29992.632460059274
29995.16736571278
29992.35019145999
29994.14331576828
29992.971183266345
29992.269122967828
29992.6643472628
29991.828620034983
29992.031763154104
29993.993816593123
29993.930877899536
29992.434217385817
29995.08271279848
29996.109039865314
29997.079206239458
29996.662112037913
29997.12138400585
29999.63606733534
30000.176458293503
29999.007347898092
30000.306411160007
30000.16430253665
29999.408849575862
30000.327094225497
29999.74474907428
30002.009549351846
29999.691268426202
29996.801330026203
30000.225514046924
29997.709108743304
29999.514660896657
29996.930420457255
29997.02584053154
29994.108386697244
29991.370609740312
29987.558203398992
29984.33981203772
29980.1186084489
29978.180755229467
29978.87197211679
29975.833602294744
29978.89511059065
29978.98522418
29982.910390373523
29987.069691727072
29990.787480874144
29993.406588431324
29992.895609067684
29994.471084833338
29992.750487729925
29994.701393172723
29994.32713448284
29993.66342784092
29990.957939875625
29991.245315597083
29991.52723855212
29993.167556325894
29992.38982393227
29992.22930191856
29991.97320117818
29995.691513878177
29996.82740844405
29996.422246931867
29997.09827601478
30000.236287889886
29997.80478277274
30000.86105641425
29998.635867584937
29998.90210401267
29999.924242872556
29997.24747337799
29998.62357828056
29998.85981185511
29999.688419940976
30001.29346652547
29999.714707334646
30000.118684575955
29998.60534990437
30000.153387303202
29998.74335178484
29998.527876438657
29995.360013205358
29991.31747777995
29986.365405925935
29984.777170958452
29980.383450801255
29980.11152974546
29976.711257465704
29975.13885710545
29977.92089445248
29979.049348268076
29983.345548605776
29985.615873262912
29989.38520919292
29993.895788785667
29990.37682395574
29996.034248481126
29992.939827745686
29993.979292827997
29992.787578232907
29992.005154201262
29991.162985361883
29991.788166973023
29991.571900585215
29993.376462457614
29991.301173063857
29992.956822055236
29993.372854950194
29993.11777436173
29994.259347959265
29997.431331164273
29993.937195788163
29998.111468229563
29997.60411450123
29998.166938620856
29998.555936517085
29998.897748876017
29998.426630329166
29997.8808091764
29999.051978702497
30000.466301821813
30000.195157793627
30001.079615342394
29998.700351190848
30000.71674854987
30000.769219994847
29998.626134668324
30000.78419392963
29999.264670665103
29996.185388821672
29994.461780032754
29990.503760340325
29986.134575266085
29982.549224672857
29979.591774105935
29978.381980826965
29978.87082655256
29975.31775861098
29978.117577605986
29980.24406169717
29983.13211088378
29988.328562019684
29992.521902630775
29993.240289536974
29992.690273929475
29997.789400310106
29996.113479398064
29993.46979978728
29994.496378382813
29993.52562141902
29992.36060072979
29989.70168988401
29991.809451336117
29990.936866327123
29991.303519119137
29994.19507159003
29993.407932312413
29996.368735076987
29995.880346790545
29997.658096816667
29996.589029619594
29997.465343633587
29996.908850153282
29998.94133972002
29999.729418539697
30001.211643038383
30000.980452229647
29999.98995389355
30001.077678629666
30001.74240788821
30001.121382558173
29997.200555684874
29998.629661080486
29998.826665153836
29999.137891822047
29996.303874693036
29999.343601092507
29997.494997484064
29996.57302390831
29992.716058675083
29992.341519931324
29987.93050848283
29986.1577628224
29981.09101167039
29977.450595336264
29978.545851062223
29975.985878976506
29975.123650024016
29979.650361845906
29982.827251549817
29988.209669349904
29990.190492652106
29993.614998571822
29995.9062149986
29993.86105024207
29995.232785788336
29993.12805658959
29993.665122878236
29993.166739349163
29992.041007395135
29992.567706864724
29990.216198345122
29990.975994844466
29992.460137259695
29991.925084083872
29994.35991330184
29995.492977649905
29995.06635390118
29998.01062887676
29998.20735334031
29996.57804935562
30000.923058981953
29999.21456921086
29997.618824131117
30001.68691260269
29998.121047570705
29999.253939433376
30001.230322593547
29999.38356541752
30001.535602060667
29998.908845192273
29999.565612111084
30000.79339710707
30000.312188361575
30000.109342980795
29998.814742221693
29997.477471496815
29994.957021427905
29993.303341610885
29992.950125380186
29989.421119351256
29987.314340962817
29981.96445504322
29979.33857345442
29978.982727444523
29976.352101425964
29977.387426138168
29980.183319512915
29982.066898907815
29985.969723893544
29988.58731367136
29990.81184091236
29994.24912315213
29993.45331084349
29994.049731757583
29993.710947192605
29994.133576355
29993.037781528616
29989.13142804262
29993.58166438874
29990.32556578111
29990.62971249464
29991.2867609477
29994.603264525027
29995.61106165695
29994.356524352963
29994.766728864055
29994.89761283817
29997.55082470651
30000.241510965516
30000.0490288146
30001.53243125511
30000.289651178035
29998.46003614781
29999.406245912032
30000.23422483353
30000.30141773974
29998.881339294847
29996.83834994761
30000.38505024847
29998.635142030977
29999.11321029434
29999.956940028813
30000.21007467174
29998.491236551276
29997.77161955657
29996.802759548536
29996.110890537057
29991.315181318187
29987.504516379646
29984.57584297383
29983.453946746016
29978.889636538668
29975.541358144856
29976.336487432214
29978.06355969681
29978.229024438653
29982.911233367475
29987.729610037135
29989.40107863342
29992.654881661863
29994.576324196565
29996.531166262826
29993.082474030114
29993.97988376173
29992.185846323635
29990.781549632477
29991.226302631578
29991.048460289167
29991.95752470823
29993.76965917951
29990.997796326817
29992.765217528227
29994.336244459333
29993.163421255373
29995.043264212756
29997.327745165352
29996.40507672689
29999.096101189316
29997.356366006137
29997.70708866375
29998.100342245674
30000.357773277574
29999.118791442837
29999.46762091398
30000.49919443691
30001.354883447595
29998.67457283153
29999.04362859202
29997.544580714504
29999.612677919115
29999.375318981503
29997.28878397883
29998.204457591735
29995.20876089392
29994.44705418795
29990.112652793618
29988.797362394333
29986.749782764746
29980.895455577593
29979.78982992006
29976.707876762022
29975.600525327958
29976.114787398394
29977.40015584762
29981.832745267766
29985.67371774069
29988.543613614936
29991.020736152892
29993.02884699915
29995.61270509628
29993.413244777403
29995.06193183966
29993.33384733038
29993.57889845815
29991.188937383748
29991.761291411392
29991.9310609889
29992.142837479452
29991.003402754883
29993.337482620813
29993.974723149397
29994.03554554868
29997.860488139548
29995.631109417587
29995.74587422334
29999.16682126137
29998.020900401367
30000.899505796246
29999.450271056277
30000.073605944028
29999.214820525034
29999.04344790502
29999.88218355724
29999.671091117805
29999.526707178222
29999.54549395976
29999.405499189423
29998.048215383442
29997.725889726393
30000.600456835185
30000.37396568622
29998.438015376545
30000.68053341409
29998.503462196997
29997.162414336308
29994.941384315433
29992.391433876866
29990.388690429354
29985.264454628363
29979.282534470643
29976.907745516273
29977.31787069053
29974.49026501048
29976.917294552593
29979.302623011783
29984.431115124808
29988.121781650287
29988.21929077446
29993.94366443077
29993.895263157006
29994.13427979882
29995.38696452998
29992.853606471737
29993.56362556876
29992.08912032181
29991.318284919867
29991.130799440292
29989.69259910305
29990.82622201187
29991.460264414854
29992.218646456182
29995.614002669205
29994.18346907128
29994.32775039819
29996.56897440364
29996.644666401466
29998.693318308924
30000.136576431087
29996.8076055339
29999.579313004586
29999.581728837868
29999.918047869414
30000.736165512328
29997.79283510392
29999.607506857366
30001.129638735114
30000.83903351094
30001.3857580582
29998.597514781042
29999.680170574266
30001.684862674436
29998.118233053025
30001.632731363992
29999.083229217667
29996.155243135927
29996.342040530017
29995.23531091241
29989.713031886997
29988.984377065783
29982.884424983105
29981.96503530519
29980.0659725137
29976.1911455706
29975.1317710502
29976.654408589697
29979.03264985991
29983.581913205806
29986.18482214397
29989.728878805025
29992.173407618095
29993.351424074677
29994.3043912876
29992.0476290029
29994.622182509436
29994.605282059525
29992.436034083217
29994.408679454187
29992.314486386706
29992.347357139406
29992.598578790134
29992.05900733577
29993.500851451565
29993.792644490306
29995.29200548649
29992.76752553238
29993.427804118477
29997.673179394358
29999.294694057917
29998.753727892683
30000.890422508877
29999.75293202773
30000.387378868116
29999.788681715374
29998.046506946903
30000.435789001473
30000.248151929078
29999.691271140076
29999.593756817743
30001.11491230461
30000.996053703177
29999.38749169191
29998.561929835556
29999.608080370315
30000.403449571466
30001.19302614242
29997.51227546329
30000.496000238993
29998.19539819173
29997.548373730468
29992.868590846978
29991.08892684332
29988.488876965115
29985.12116900228
29979.980460169892
29976.760460613543
29976.09641263009
29977.685372342865
29975.390750115628
29979.86411593987
29983.5661394034
29987.90926408566
29988.9631152048
29991.813466155876
29992.407535449915
29994.848860357677
29995.57771512724
29992.53496562645
29993.089912328072
29991.390791086193
29991.61218240714
29992.101555605128
29993.58228926044
29991.567802261467
29993.071751094663
29992.074212411353
29993.442130504973
29995.938592901435
29996.382443599567
29996.99663041286
29999.07925328668
29998.101308506688
29997.97581473632
29997.779985209294
29998.624694870552
29998.21078211582
29998.305024418165
29998.16969627951
29998.583056879743
29996.51662471609
30000.88397009776
30000.01951085177
29997.994223353184
29999.92703766444
29999.410103019563
30000.027571215258
29998.722954292876
29999.74394481346
29999.555030685216
30000.00091479098
29998.445388867196
29994.25464696942
29991.26438725195
29988.11760401626
29986.11403674759
29981.608317439503
29976.28343002722
29975.785314208042
29977.42741530675
29976.636717507816
29978.613881123147
29983.111420527588
29987.55479025404
29989.340229730464
29992.376456972404
29994.407395809594
29994.680173550907
29993.848794890717
29995.975682078544
29994.95140563758
29994.21744345713
29992.054463202745
29994.17073125392
29991.782467125016
29990.885639575474
29992.571356768032
29991.37926200704
29994.316495509076
29994.474379697873
29995.17063250474
29996.42519475792
29998.29954682906
29998.92210858322
29998.523074788533
30000.592987473214
30000.583087634706
30000.447831487243
29999.842830056965
30002.20355312858
29999.475822350974
30000.34302766747
29998.352012967247
29999.620021945917
30001.306533572013
29999.388582210253
29999.46828365226
30001.270352441847
29998.904832987468
30000.07577165014
29998.05857416531
29994.56993459858
29995.38461964306
29989.369841195225
29986.480396541217
29985.18170233016
29979.234837458727
29976.874906338988
29978.872560998883
29974.13220950882
29977.046050251756
29979.494571025407
29984.255213678553
29988.56107166543
29989.47493803663
29994.551110349497
29994.10897392826
29992.316474845047
29993.079661800293
29995.310571636797
29994.000070835275
29993.803972395188
29992.727191765942
29991.31616787803
29993.632945672533
29989.880882789654
29990.88911023278
29992.795944790643
29994.57238811801
29993.64108831732
29994.739236895435
29995.555108493943
29998.487109447196
29997.05549540208
29998.905656290743
29999.86294890664
29999.57797730518
30001.156117860824
30000.902874529154
29999.95743084239
30001.41057462697
29999.741302329363
30000.259703784497
30001.558043056924
29999.66810869782
30000.324404862826
30001.8869580782
29999.65386611236
29999.699478003942
29997.201769008807
29996.051620367503
29999.231163812638
29996.776801969965
29994.050705973237
29990.930392033904
29989.152564723096
29982.893570798802
29980.841748433406
29978.962622475166
29977.045830695155
29975.80411192747
29977.535458171948
29980.728859950643
29985.607392091086
29985.548372460064
29991.00020730175
29993.672773832113
29993.357625186232
29992.670516783288
29994.52696905446
29995.811956448833
29992.46530481459
29992.52146049845
29991.60180457148
29992.98647551934
29991.980852530793
29991.72882918502
29993.50392197311
29991.981966604217
29995.03192109397
29994.534439237304
29995.33057480947
29996.951400641334
29997.135541677668
29997.09528563859
29997.561779911404
29999.117071594075
29999.725252075765
29999.38049634243
30001.7478764797
30000.502848863023
30000.22154097055
29999.433907821756
29999.619628252527
30000.64282105109
30000.880310563287
29998.729718703653
29999.78751180711
30000.025040809964
29999.46918785156
29998.383412962856
30001.052682975635
29998.03238712772
29997.873560144675
29996.90004480276
29994.792415071035
29992.024911267148
29989.959852389777
29985.945530138895
29982.149193066994
29977.408505867574
29977.536651137805
29976.129894380654
29978.079377940143
29977.651865063654
29981.625675747448
29985.14451817925
29990.00742529924
29992.768029376173
29990.718959248006
29993.594703652994
29991.583167297602
29995.15936404528
29994.689686234356
29992.69746095364
29994.584797433523
29990.943122974637
29991.347476964384
29991.604953752158
29992.67520267149
29993.958823090048
29992.441398458963
29993.97367136385
29996.31476790911
29995.858081169077
29998.401127378867
29999.211045120064
29997.45978970092
29999.693019341652
30000.2862348035
30001.55310448981
30000.166202040346
30000.66242558704
29998.121306819194
30001.082500329645
29999.779685748206
30001.393468546896
30001.23286267156
30000.04628977877
30001.558356273803
30000.248796267657
29999.126576767314
29999.12465544759
29999.95502110853
29995.764721627307
29994.377497009842
29990.200253644238
29989.02648285786
29984.428648999045
29979.539885979313
29979.131059070234
29977.383173766415
29975.513071800047
29976.91477417367
29978.10634748651
29982.16181029178
29988.470156438038
29990.01646207265
29992.986756796596
29994.52484725988
29993.186712808114
29993.472157203887
29994.341905636098
29994.463682417976
29992.616894544793
29993.842634903707
29992.36992200763
29993.141720251853
29991.933365147677
29992.525584366136
29993.38327437285
29993.44576510285
29996.621683081798
29994.59775220986
29996.219026452152
29997.526757860778
29997.861611598553
29998.85021525408
29998.44317270213
29998.63040316955
29999.198241170063
29998.648748200132
30001.388650954785
29999.872202365423
30001.309316681705
29998.469221404932
30000.295202676316
30002.226076902218
30002.729945325005
29998.676278830288
29998.652739366324
30001.024840054688
29998.88361593759
29998.98177667605
29999.12594315583
29999.048422963562
29995.6108170957
29993.571819840592
29991.41763876581
29989.110075718578
29981.30467731667
29979.526699197926
29976.340237257195
29975.457378635863
29976.177767263776
29979.870616993496
29980.525932683435
29985.996855527163
29987.364154205854
29990.13673516351
29991.933978113022
29994.830731453647
29995.135174198982
29996.210311263585
29994.42500235084
29991.665518513568
29991.761927822754
29994.211820647775
29992.306853318332
29991.740819596398
29994.045625557694
29990.885250602183
29992.678410707234
29993.924995543006
29996.94249073155
29995.104662652077
29996.589327570386
29998.0388642889
29997.920901608508
29999.925690793334
29999.03237013897
30000.75743584895
30001.42686679944
29999.319997391656
30000.541850583788
29999.0103188929
30000.62853328301
30001.268822103855
30001.302924515363
30000.357893232802
29998.085899428545
29998.200883536447
30000.474537238897
29997.642987419127
29995.813445800974
29998.7707223873
29995.388276443395
29993.376048370425
29990.67243347511
29985.056709266035
29980.971158446446
29978.805852066074
29973.71225563663
29978.683584956594
29978.819603124983
29978.800463285945
29982.56543538345
29982.95677989273
29990.328075514673
29994.565555952133
29991.904926550953
29993.031084451766
29995.9923962865
29994.866599476085
29995.290982093764
29992.389630885584
29992.805625495115
29990.32523750015
29991.261043769915
29991.573031805452
29992.69457769565
29992.492995275163
29995.57100140019
29993.647852266222
29995.88103501901
29996.095776911745
29997.51215510674
29997.870383301848
29998.88530590439
29999.072009378804
29998.889629474543
29999.12554082617
29997.470514839682
30001.052086058557
29998.56727272769
29999.690292277122
29998.168207811665
30001.38335660182
29998.2034305333
29997.304389047113
29995.736812561558
29993.6088692634
29992.48712189234
29988.060991299943
29984.52045746364
29978.542584287094
29978.3720324025
29975.55077440793
29976.975451424172
29976.409770889397
29980.918502471035
29983.63694117564
29984.15622538644
29988.569550769687
29992.09837543732
29995.273886564544
29995.309340675187
29994.50560453061
29993.966999298897
29994.6697862115
29993.804364417538
29991.531933659837
29991.6008379566
29987.6318924505
29992.906022309235
29994.584472733088
29991.319928890443
29991.854431109477
29996.509061918852
29995.95280822717
29997.374333967062
29996.276756048122
29997.398040521417
30000.18091897648
29997.517046557277
29999.88068407743
30000.46578272944
30001.396770233347
29998.78582715312
29997.18626591297
29998.22217176533
29996.72986353713
29994.473211996155
29992.875154451554
29989.28079780152
29986.552693089696
29981.761471116377
29977.634119332928
29978.079371519285
29974.413537234683
29979.77742248988
29979.790029226933
29981.563735059615
29985.913247424636
29989.648400529586
29991.834693565972
29994.98516856833
29992.038600087984
29993.906240844033
29993.94371637009
29992.393167729027
29992.091578316813
29992.894463544337
29989.580824240118
29989.985668983674
29989.35391349686
29994.344843319013
29992.407457199526
29993.00404790273
29993.74118885177
29996.09928901199
29998.645096109074
29996.430471391977
29996.721453019974
29998.108708941065
29998.202659763665
29999.01761950166
29999.830426899716
29998.895359279602
29998.25276142088
29999.675716921327
29996.064737212324
30002.205622499318
30002.072249624736
29997.545964128924
29999.203811550586
29999.35254152107
29994.256810519284
29992.599076827933
29990.38710723964
29987.262023247167
29982.746582159052
29979.62992819433
29976.12299045178
29975.94655591843
29976.07434658237
29978.289897627266
29979.1789901037
29983.02416935722
29987.386312301573
29991.890275500697
29992.15646202501
29992.03432768046
29992.945137862673
29994.86146860454
29994.70809896605
29994.921413618005
29991.43803053953
29991.570707037652
29990.63542647934
29993.70005566499
29992.46184128445
29992.198559190292
29991.200764563186
29995.5396281914
29997.082612712646
29997.092367081055
29996.067837434588
29997.840126112067
29998.835755740198
29998.58049768474
29999.715051678075
29999.547120958017
30000.45906697016
29999.22867744573
30000.154355516268
30000.680123456797
29999.834473626455
30000.495532748577
30001.975358397736
29997.5309704807
30000.815043594524
29997.592850135203
29997.9899439584
29993.42122274015
29991.562874323863
29988.7641104145
29986.023861925743
29983.317670784163
29981.027575437176
29976.166285656745
29976.112837045777
29978.22913601264
29977.710755744287
29980.362729424156
29985.771555875996
29988.08074252852
29989.746140586856
29991.685759019612
29994.16908161936
29993.766106589126
29995.111057909413
29994.82499819923
29992.465982424925
29992.110186480302
29991.70314432455
29990.66095807855
29991.74084102538
29990.930815292777
29991.870412209653
29994.13319979915
29993.641094417533
29995.757332066925
29996.037459635616
29998.654825026388
29998.147200013682
29997.412891862266
29997.970234374407
30000.502724474416
29999.833082466474
30001.177392258887
30001.34740090488
30001.16390178969
29998.955846433084
30000.5537000235
29999.558580156805
29999.456366243405
29998.105506461525
29998.490888084718
29995.48762050559
29992.63027727948
29988.208732485044
29984.561308851098
29981.509457276763
29979.588308923845
29975.052720978798
29974.400804846515
29977.51360281938
29982.660281322645
29983.16557779551
29987.82715958394
29989.29983631063
29991.221238126265
29994.972946641527
29994.055444486145
29996.35574017222
29995.71064537634
29992.45850371517
29992.799795760457
29992.765884167868
29990.744126504782
29992.9779444866
29992.891573945843
29991.893333572676
29992.829087248487
29993.38749406652
29995.836101255893
29993.494278418788
29996.182026625098
29998.313310232916
29998.87904917424
29998.36026066371
29997.633412244162
29999.526805982805
29998.48021642916
29998.295258621725
30001.84964265281
30000.698179401752
29999.883152293747
30001.707456034997
29999.009218283838
29999.773352094886
30000.87989491885
29998.24725047707
29999.587435764188
29996.574944817286
29995.594917211343
29991.532130359676
29987.72339711724
29983.42786912815
29980.720208246632
29979.05884294387
29977.500157833743
29976.95606429639
29977.601291863262
29981.48571153171
29981.466148839285
29985.45266142808
29988.21830811272
29991.1731088142
29992.53449211849
29992.68040593013
29993.98568599188
29995.64525007963
29994.74092366831
29992.788251209382
29992.921880424932
29992.30925641318
29990.838046179906
29991.8532853561
29992.40997729727
29993.90093144569
29993.415027489566
29992.334064217186
29994.919342206373
29996.974354654594
29997.014676930692
29996.62298327423
29999.218974966287
29997.496228654683
30001.45483272667
29997.380155072562
29998.2408551345
29999.677721594453
30000.229441232696
29999.7380873561
29997.737589463977
29999.058501420044
29999.147138857017
30000.668136093802
29995.625270209166
29996.83073379644
29995.259067210467
29994.184920943
29992.100460662325
29988.566477371474
29982.452422461087
29980.272011888916
29978.10183162399
29974.19692442123
29976.90205917362
29977.87212630428
29979.16835159536
29983.454829469312
29987.9107689529
29988.92583296843
29990.711514629376
29993.95556823511
29994.994144642777
29995.306242041956
29993.53167386947
29991.60333586545
29992.371878139773
29992.72926916009
29992.33573032533
29992.81955316928
29992.421063052043
29993.370829808257
29993.12341530588
29994.244128332255
29994.486663522694
29994.966932664836
29996.728482421513
29997.933160203018
29997.768361055652
29997.33763116069
29999.95332349542
29999.43042782875
30000.194247969353
30000.92487828869
30000.258838397105
30001.44317475731
29999.338623402968
29999.168827235862
29998.698673503015
29999.07371538885
29999.452572111117
29999.201904028843
29996.94576785611
29996.10772906782
29994.355930458933
29991.069727432183
29986.487296676012
29986.86195546129
29980.53166169321
29978.773036647024
29976.502149702803
29978.18052763394
29979.211870040628
29979.089969610464
29983.626787267258
29988.143001310724
29990.853583560667
29994.021860597153
29992.674599865226
29994.151433803803
29994.104839895415
29995.388539295727
29993.74861864883
29990.41784528557
29994.33774827417
29990.29605474151
29992.07675185134
29991.091369978458
29992.32751678698
29991.326204803107
29992.409044285258
29996.42684708174
29996.63059290411
29996.362213869175
29995.176363738185
29997.220647232793
29998.8855927308
29999.864250251274
29999.18242077899
29999.057554457973
29998.81213695524
29999.598587203687
30000.938833248587
30001.127114652514
29998.633449159024
29999.116935224487
29997.726648296655
29997.083633300303
29996.06633947218
29992.603857123613
29990.62243469552
29985.13583280311
29982.16203497429
29979.732712383484
29972.815299991606
29975.195949763867
29975.73095093875
29977.768377825978
29981.344813439555
29985.27327797875
29986.077790784384
29991.64637670662
29992.871991720058
29992.922274522305
29993.505912768072
29995.108892672888
29993.643272255016
29993.732845942635
29992.05281456776
29993.80231747372
29992.04590619348
29989.51220218994
29990.62650386555
29993.83120802377
29993.72476314805
29993.378557017764
29996.4396336759
29996.118501180612
29996.48543767269
29999.611575451192
30001.41958164454
29998.012398304585
30000.7595585474
30000.03322122628
29999.97017740992
30000.556841284902
29999.944064889114
29999.856280498076
29999.570806180487
29999.2618968288
29997.329476586016
29997.69093592747
29997.519834526855
29990.903380786232
29989.904549864867
29986.46863920291
29982.77703726614
29978.562476305167
29978.774121179602
29974.537182262666
29975.72773149551
29977.680943860865
29979.790208022696
29986.00303558998
29987.478814115006
29991.80386659125
29993.532233418573
29995.066449518017
29997.458379926553
29995.424106302173
29992.79744661207
29990.981226810192
29991.318014772165
29990.962677233118
29993.5122698479
29988.514208250548
29993.330929649383
29992.614326318308
29993.12178162037
29992.645579748034
29995.792800582676
29995.972794990954
29995.652648116215
29998.148211841693
29998.121853233926
29998.83105233733
29999.075351739484
29999.609239719837
29999.147380477152
29999.956430952698
30000.483474367396
29996.78565533759
29999.124888769882
29997.993580163045
29998.400156287673
29997.14303284689
29995.438363781337
29992.344048566145
29992.63135874269
29987.221664561235
29983.295382625427
29979.3151048097
29978.27474089688
29976.801963965037
29976.118377084902
29978.438468811426
29979.85686847183
29983.299510726072
29986.680291649398
29991.248245539336
29991.836737245732
29993.153401284377
29994.47911966895
29994.016615978537
29995.000197875037
29993.42263473269
29994.63885920454
29989.30907062098
29991.327122798353
29992.92411993263
29990.801259410757
29992.16345765565
29993.14517819521
29995.471166631774
29994.571583208133
29995.38602602375
29996.55755776371
29996.517814589704
29997.554231606555
29997.42604858686
29999.102835526843
29999.97706106428
30002.454744776645
30000.704994635355
29999.21485133055
29998.740683092383
29999.547968434254
30000.291875358744
29999.594060957963
29997.926862556928
29996.702587785945
29994.937966442918
29991.98131156729
29988.602154317807
29986.39279409294
29983.165156404615
29977.522430536697
29977.271512529253
29975.149934247624
29976.37999881591
29979.888428587492
29982.686686783924
29984.86805527554
29990.63921600977
29991.08302076465
29992.73559010127
29993.761443793464
29993.922474818253
29996.712678030177
29993.606144120167
29993.31326231689
29991.841396148706
29992.622247398554
29992.12513979635
29990.94483626408
29992.210742034593
29992.864486221406
29991.129556804008
29995.092930744453
29993.55946968577
29996.106394677205
29997.455708221798
29998.64136111998
29999.34351081205
29998.093093320254
29999.987158817035
30000.716531683815
29997.496278462
29998.489653762826
30000.439140763672
29999.423092028625
30002.882794588553
30000.27573338437
29998.008704912758
29997.662585313963
29994.953504073557
29994.842189040948
29993.132289715613
29989.705009695987
29985.469116791097
29982.033117574352
29979.477701533644
29976.908672296067
29976.516561213582
29977.409433583372
29978.74029022001
29981.21638968513
29985.645445242484
29989.917999501715
29992.305318649076
29992.0936463726
29994.228639290177
29994.756237050293
29993.836300451472
29993.799488639866
29994.990493110727
29992.427301009793
29993.48548535805
29991.10189740042
29992.382431461236
29992.814304841417
29993.701273008704
29993.30422937677
29994.053259280765
29994.50360849234
29995.793404720527
29995.642335639346
29997.560924988233
29999.958375517024
29999.863999332985
30001.9877801499
29999.683893539986
29998.599874007195
30000.247934048577
29999.967980243375
30001.78150902177
30001.345953438897
29996.27012509828
29996.57641779989
29995.97149030062
29992.305664463074
29988.93790855242
29983.961445900804
29982.073249761735
29978.40527155747
29975.973559312366
29975.636134733493
29976.013708818846
29977.943199146433
29982.607067844114
29987.218854454826
29991.459577405607
29991.186728923803
29992.21516762361
29994.543046656152
29997.259661291962
29994.521217762504
29997.742225874685
29993.077853536393
29992.21442528162
29991.05997038353
29992.065399500512
29990.417401276023
29990.613753308735
29993.653161338952
29993.494151010782
29994.21371785693
29995.695331348696
29994.067114733065
29995.8448499019
29996.58986527104
29998.931314316233
29999.641561783348
29995.805163729936
29999.973548955684
29997.102404588823
30001.053159228897
30000.774989651956
30000.637338352586
29998.59684129045
29999.185801002823
29997.95782228499
29999.87091528044
29998.911156548183
30002.454347902312
29998.705654116085
29994.157092369995
29993.363579407436
29990.526914914462
29986.630648217862
29983.931564658265
29979.767394697843
29978.11377255618
29975.620704068322
29975.588779493657
29977.657281256234
29982.976797094045
29983.732780143935
29987.008179784352
29990.54119552641
29992.275662706164
29994.017723892233
29995.189218368225
29993.402660137104
29993.8702054274
29991.462340062735
29991.13885523945
29991.33736642351
29991.3281220178
29990.95184587477
29991.918681370982
29992.30650307915
29992.963350016526
29993.96249966571
30000.246726293688
29997.110358677986
29998.074624657904
29995.360818272795
29998.87922740519
29999.64954411588
29999.57654076313
30000.280708195773
29999.928099270808
30001.82945399519
29999.677804402992
29999.420194073642
29999.374216181728
30000.4932365384
29998.70797359405
30001.185611276196
30001.064143861757
29999.80191459146
30001.106668183005
29997.652266860056
30000.66652409068
29999.668832264113
29997.525538516566
29992.340722638568
29991.326560628506
29987.53281215105
29985.337919046568
29980.847104135366
29977.469664175336
29976.21555695296
29975.222819612904
29977.26956853407
29980.33555076462
29980.965780788432
29986.83276493126
29990.957170919788
29992.310503371024
29992.53672337245
29994.84958639115
29993.848344768878
29994.748286952952
29993.386832910026
29991.72512487766
29994.401765167844
29991.572459625328
29991.521393765433
29991.312784802027
29993.01538060195
29992.476663884936
29992.578010906756
29992.819140624622
29995.39243190722
29996.306290366607
29997.9142208644
29997.914770644984
29998.48929015218
29999.360405145675
29999.446936922737
30000.55802796442
30001.34154360977
30000.85759779989
29998.319615824083
30001.803162773514
30000.349448413777
30000.59334735438
29998.527420776205
30001.361225962806
30000.01224820828
29999.24406299599
29999.93288685208
29997.643478716094
29998.03120725881
29997.66477322684
29996.5222441611
29995.040446367304
29994.838834931255
29987.660124015725
29985.185504570294
29979.893533698334
29979.291075940415
29977.128531631253
29976.38765588494
29978.623437353315
29979.998436001493
29985.558609553165
29987.12603286473
29991.186175209543
29990.33786578389
29992.700501391937
29994.334447316953
29992.30738124135
29994.757566495922
29994.400577160402
29992.164661269137
29990.46835420195
29989.884747142492
29992.41017453003
29992.664008624728
29991.2729259496
29993.409370061636
29994.766766718567
29995.402015504824
29997.465415465354
29998.33196807912
29998.395390194142
29997.37354550888
29999.219931616473
29998.05147682036
30000.12211651695
30000.672557097554
30000.31110976592
29999.675878257243
30000.63601820879
30000.08447111687
30003.30892615469
29999.628964043048
29998.222420103015
30000.063618561853
30000.048383043537
29998.310666272046
29998.3593991386
29999.243244260917
29997.638065976404
29998.914147285173
29997.0441468111
29997.50858345216
29994.256846304157
29990.467732278135
29987.23052815783
29980.392419847554
29978.028113325527
29976.382346600352
29974.696581085547
29976.790525538625
29979.157904504144
29981.826137190023
29985.723265976027
29988.73730413782
29991.694748358754
29995.165577629312
29992.755565020474
29993.955348105104
29995.489305038653
29996.15742223672
29994.72426891391
29993.241455490715
29990.377260112215
29992.873758645324
29992.68510812111
29992.015726650312
29991.844250751492
29995.13355913221
29994.138747502224
29996.474243967445
29994.568333012612
29998.54062147092
29999.86921287616
29996.28848562264
29997.665477744107
29998.244886310767
29998.58696620371
30000.834311432507
29999.43353871764
30001.14388660295
29997.128503062046
29999.044334953964
29999.056600548094
29999.613420231293
29999.062418655805
29999.16381793592
29999.20666153788
29995.077918208943
30000.531271092907
29993.737830152633
29993.558393697203
29988.51098658169
29985.84927059922
29983.48370386862
29977.978146452686
29977.601118684288
29975.034771528106
29976.900524680277
29978.03685528984
29982.141761102797
29983.806576402978
29988.407433401335
29990.51427904187
29993.54425525102
29994.304250019493
29994.735818889993
29995.760060124932
29994.85635210563
29992.0151029191
29992.201812145642
29992.98736167235
29991.150877439435
29991.519306103193
29991.497798756987
29993.324702870716
29993.203947330356
29993.027462191512
29994.9168487474
29995.198988664833
29996.36395959081
29995.818180393348
29997.296823943045
29998.235147351246
30000.247722763517
30001.33095531019
30000.556736726463
29999.671424607135
30001.90999472027
30000.655201221824
30000.585169227976
30000.01136577202
29997.213620363902
29997.276793104666
29994.817417208822
29993.720041836936
29988.25019885098
29986.07964456623
29979.374087375258
29978.43681610209
29976.921014932454
29977.07557963374
29977.18964142248
29976.98471213988
29982.820474073633
29986.333250768865
29989.519559366083
29992.828799388913
29994.56629701574
29993.830891593487
29994.396054742738
29994.113260759143
29992.237534274358
29993.749519204433
29993.164751766017
29990.879051424174
29992.698628971284
29991.967944982473
29992.43632120606
29994.7230420027
29993.95743938624
29993.70386948116
29996.85945605916
29995.627507150304
29997.85274649186
29998.680630082847
29998.941967243918
29999.974675986836
30000.51834033819
30000.833395132708
30001.029150013535
29998.991146185534
29999.476029698177
29999.760544221892
30000.896533161264
29998.151869616755
29999.263279094564
30001.304111021305
29998.092270355653
30000.147120822792
29995.4713929782
29992.940422702733
29991.836414535974
29988.999086433618
29986.401817069618
29982.866546650996
29978.702028526506
29973.2297578347
29975.09961057056
29975.917193265832
29979.495876111196
29982.722732597394
29986.97551451093
29990.96715952597
29992.108293557874
29991.449502660507
29993.557098692196
29993.921408776576
29991.22424726954
29994.863812583888
29992.741228421473
29991.69072586145
29991.386702074396
29991.94215390299
29991.342071662082
29991.986364466826
29992.243445761545
29994.116509225038
29996.317083240298
29994.287938993974
29995.1618116653
29998.329308220345
29997.679881670847
29998.636345981584
29999.896236281395
29998.40499374823
29999.03831201353
29998.786433844383
29999.37849310958
29999.085154671593
29998.926026628014
29999.948990543617
29999.136292463805
29999.901509840834
30000.56392184758
30000.142219368205
29997.06786130587
29999.85057318294
29999.88150400496
29998.554292993544
29997.611851591795
29996.018937522465
29992.875458402486
29992.4800303711
29991.257261184342
29985.55821450163
29980.4133862856
29977.502917610713
29973.98405081067
29974.762866719568
29974.947384317005
29981.92191015097
29982.597861170972
29986.36645450634
29989.057240946848
29992.732678109714
29993.67441133458
29993.933080380717
29995.54962781828
29994.80236223851
29995.470214881898
29991.488690369468
29991.382017673663
29993.407796794625
29989.658405724535
29990.57982881932
29992.273001798283
29995.838033243064
29993.431725889594
29993.327935678342
29996.01852407296
29993.59415099268
29999.279472403698
29998.46609434027
29999.622040406975
29999.68385487
29998.478961331886
29999.85710794226
29997.81114558635
29999.758589364952
30000.322628629365
29999.552556919938
30000.4093070452
29999.73673132857
29998.651706960896
30003.97083289378
30002.273343938006
29999.847195544768
30001.530463859952
30000.241017410117
29997.783277043367
29997.1963322263
29996.43913654083
29993.09407350948
29988.16129911127
29985.048813462192
29983.472106091886
29980.34833487743
29975.464531137808
29976.496714568555
29975.813515101614
29979.116277695415
29980.546644313694
29986.22179138842
29987.882940515177
29989.50521982038
29992.468950530947
29993.64181920742
29994.432402112176
29994.691451127543
29991.675462475087
29992.748963681646
29993.01514307283
29994.12468738793
29988.56877724354
29989.84771399595
29992.11580738003
29992.95726208023
29994.878157105835
29993.70045576957
29996.511765850544
29995.304481161216
29997.567739155907
29997.654376526174
29997.99913293032
30001.662140264838
29997.975275626537
30000.497020089002
29996.62675696512
30000.46423243211
30001.975357541916
30000.03531640429
29999.322043025968
30000.340753829347
30000.85411118752
30002.01867470334
30002.299876904828
29999.70379869654
29998.236935368153
29999.72091586055
29999.07756843315
29999.233129525117
30001.859190042534
29997.163367478435
30001.67260843396
29998.099473882994
29997.35294515531
29998.32783413807
29994.83192156583
29988.4155554374
29987.214042921038
29984.212809334058
29979.760878731275
29977.813463182367
29976.66122084614
29976.315401521257
29979.715523314695
29980.55291312572
29984.782102634792
29988.384475196788
29991.469949731723
29993.41795228127
29993.011350297984
29993.99114375537
29993.23728561638
29994.754211299045
29995.739411009366
29991.961730176787
29991.60817764012
29990.877434447168
29990.57716169722
29989.86248189511
29992.361021538054
29992.275113923974
29991.58674954636
29996.82147514753
29995.53874229804
29996.431986959073
29996.304894881097
29998.49689882007
29999.153152742605
30000.11794870846
30000.604877596958
30001.114073046367
29999.285748769285
30000.28581687329
30000.92231654865
30000.672746755554
29999.71642517536
30000.353504167673
30000.177557469488
30000.269676856988
30000.035119661254
29998.444912194354
30002.954621786757
29999.59649896726
29999.580559150447
29999.148952341122
29999.02226942869
29998.933828276306
29998.428124857608
29996.228994322268
29993.142374636813
29991.638759440833
29985.170390210147
29981.76782587729
29979.88502332602
29977.27437891591
29973.665796209196
29975.845150897316
29978.38653541327
29980.362533987813
29985.967363740332
29988.97644315157
29991.002595207137
29990.910617546382
29993.760341535613
29994.943721208198
29993.194004126235
29995.54196852381
29997.823227761448
29992.147632671058
29993.992173815048
29991.458744063562
29992.896778645732
29990.88075806305
29991.799455086406
29993.53461056847
29993.165403984684
29994.877018465162
29995.551252660964
29993.47138871478
29997.76421480128
29997.860209755843
29997.3997399214
30000.870509578104
29998.694682747464
29998.92630027748
29999.659487111458
30002.945903842938
30001.744932615904
30000.934105383312
29999.856357655346
29999.669489767963
30000.613628091538
30000.210004968372
30002.67229085827
29997.93813652989
29999.90086473416
29999.476233324152
30000.193563675097
29999.279196880132
29995.36816290023
29995.99516417363
29996.199149246273
29991.264267456474
29988.62482204564
29986.73184327811
29979.71494676182
29978.37067287946
29975.888968153427
29977.62173304029
29977.89535441226
29979.274014084003
29983.37183059248
29986.20418425074
29989.955900742283
29991.162882389322
29994.89154859015
29996.292694974094
29994.174891306575
29992.927824231898
29991.43613461662
29992.152991505267
29994.36741503479
29992.879776831982
29991.506921579414
29991.95710368836
29989.18890311233
29993.4665314511
29993.403045253537
29996.74385667432
29996.643244373983
29997.05118451836
29998.798127247243
30002.02801852991
30000.338084699393
29999.43538034517
29998.93824494491
30001.589566975475
30000.418042214296
29998.359790852744
29999.800493629416
30001.041492975786
29999.232687282256
30000.8255063126
29999.820592775523
30001.14962395373
29999.29101014877
29998.65238794851
30001.490998907917
29998.06433870229
29998.287623837834
29998.17766299807
29993.812603840477
29991.391535446768
29987.856113182363
29985.436798039445
29981.90276480717
29979.810689065685
29977.00660563073
29977.030855171106
29975.5219085414
29981.5608852267
29981.435201470256
29985.08732871192
29989.15590564438
29990.65789546528
29993.58948769496
29995.094756347866
29993.444090661906
29997.605855487207
29994.20732326001
29992.475156314475
29990.952803772125
29991.5277224402
29989.858281016295
29992.464936768996
29991.56487934646
29990.929799025667
29995.051271340748
29995.741772517064
29997.009901996676
29997.13382642905
29996.99612426571
29996.686703786316
29997.706831547748
29997.21599367604
29999.28342983085
30000.00354407695
30001.88730601112
29999.567571906828
29999.128579586435
29999.876125589515
30001.832849078994
30000.89224638478
29999.77098916784
30000.617691014246
29999.18550517186
30001.98797348909
29996.289521034287
29995.13400783168
29994.316343594113
29991.50805147385
29988.555991103338
29984.06435213883
29981.73895607433
29977.797953794612
29976.779382042972
29973.831791377856
29977.488286999116
29981.420502683937
29980.90901891172
29987.727512788955
29989.34504020601
29992.373805974363
29992.632159629993
29993.96567404395
29993.888231604804
29992.650733767685
29994.086108820342
29994.072033046574
29993.247678398973
29992.820719228712
29991.84465165744
29990.02693793513
29992.74499337109
29992.695802506405
29994.310360983916
29995.229151584088
29996.21462712493
29995.709072833466
29999.218784516976
29997.60732769078
29997.54953801131
30000.51973101232
29998.22729616199
29998.68641555388
30000.12921803809
29997.67187763791
29998.641054437805
29998.5615954245
29999.764526800987
29997.91023677046
29998.266291877004
29997.97161621523
29997.61230843045
29995.188636317936
29989.48003060357
29988.987471715256
29985.697636357647
29981.4990346159
29976.022959697726
29976.158779208017
29975.151331550467
29977.55926534131
29979.619032947492
29983.553186548088
29987.466421846468
29990.670117592686
29991.948239063157
29995.253381218132
29993.944930426173
29995.3148968956
29995.130614169477
29990.49861991061
29991.209935289837
29991.62576328806
29991.001396936394
29992.018122355028
29991.05665097745
29990.41285536503
29990.699303042595
29992.852570006038
29995.507361693042
29995.053496538963
29996.433501962412
29998.362409586563
29997.77777157389
30000.128624624933
29999.69981784719
29999.64550619424
29999.93473402561
30000.449235139262
30000.875672816554
29999.92160220616
30000.491268899503
29999.20601410358
30000.196747464208
29999.633125782308
29999.201261228027
30000.224741674687
29997.309873698054
29999.77319709055
29995.401442164264
29995.810874966803
29990.899878409426
29988.646001163772
29984.313002061943
29981.011196461302
29976.780347905336
29975.94088192616
29976.789883579775
29976.497608615915
29981.572436915532
29983.794365300466
29985.273267716424
29988.779089212057
29990.315349363624
29993.012102583092
29992.69030936525
29992.500182819982
29995.532062087146
29993.50042645203
29993.672063720096
29991.38160831897
29991.855206399763
29993.61936594314
29991.57772273054
29993.34178878374
29992.154149592225
29992.56368718802
29993.7811226336
29994.801886438298
29998.554608445793
29997.87776482494
29997.398939984196
29996.73572908568
30001.388782649425
29998.935109176164
29999.881307500433
29998.78063276341
30000.280441934803
29998.78398591857
29999.708809680105
30001.43712701787
29998.931982237
29999.0995018264
29998.768977383366
29998.939822243505
29999.41519495287
29996.763840846463
29993.042112905165
29991.04174302179
29988.72991465282
29984.601161088885
29978.139125346566
29979.633571789927
29975.52017064622
29973.85743813676
29975.805756896374
29978.990619008007
29983.757562818755
29984.755155353243
29988.96861258106
29991.98297196704
29992.94834228054
29992.55808196247
29992.172689854604
29995.455326795978
29993.366296350512
29993.108279213113
29991.463509369078
29990.829641628017
29992.8338354635
29991.44122467393
29993.732386510645
29994.85626405073
29991.73684826172
29994.43159684184
29994.9485948086
29995.879697256714
29998.14520504516
29998.054758078793
30001.4757446057
29997.37066992054
29999.509444441283
30001.062299224574
30000.86724249023
29999.83846363103
29997.47911079457
29999.957250871234
29999.34153168028
29999.624484567725
29999.131006564923
30003.288602505483
29999.690508640084
29999.351548666444
29999.380579949426
29997.649719162182
29997.50186688989
29995.635925555554
29991.86796290893
29988.624584268553
29985.645134966257
29982.39969891152
29978.4560164188
29977.028368096424
29974.81200449329
29976.755220056883
29978.183159480875
29981.651081914428
29985.980038732367
29989.17807076001
29991.810834397395
29995.951804166685
29991.18958069133
29994.02831448996
29995.20456984673
29990.565222506164
29993.227050408463
29991.793463149694
29989.02151408055
29992.074418615375
29990.999237640586
29992.61110086373
29993.581337110292
29992.213707779338
29995.647634281067
29995.03125434137
29997.511596599943
29995.751858294378
29997.308846014093
29998.301699055446
30000.23730916692
30000.346784195543
29997.853415993424
30000.556153299738
29998.503874612936
29999.16259101865
29997.631733724473
30000.68203908276
29999.90878176845
30000.587720125455
29998.103520203804
29999.779287397858
30001.636298045833
29999.98254903772
29998.857679817622
29998.84059868379
29997.892266690473
29995.510697617316
29991.99472831542
29991.897100793656
29986.35347266411
29980.65579330022
29977.58858217296
29977.07494707623
29976.29887728499
29979.299263015764
29979.917415902735
29983.49452941652
29986.430547264838
29990.820870487696
29990.68319024627
29993.969765247748
29993.93158168601
29994.255607432802
29996.225896386375
29992.88353908896
29991.573143035068
29992.485842228107
29991.738169070057
29989.540183796962
29989.30528474987
29992.659903410993
29993.402979823226
29993.301255476632
29994.925463260126
29996.32573397943
29996.268095813895
29997.1919409196
29997.96426066093
29998.719589589044
29997.65322216609
29998.396784609402
29999.664409376226
29999.68365673898
29998.415155958475
29999.510716119024
29999.67689898023
30000.376545909374
29999.326938533526
30000.599043913287
30001.99843160666
30000.718871536086
30000.962462073192
30000.32559095702
30000.89395716628
29997.719333566984
29999.84584214076
29997.0297422817
29995.797852901316
29991.615677927864
29988.435721078815
29984.89669698768
29980.999985771512
29976.880058768813
29976.15739026718
29976.348764699927
29977.789819426456
29978.91363067528
29983.213077111734
29987.8704921879
29988.64591063369
29991.669804938305
29993.372341831397
29994.19965702184
29992.274124862353
29993.474285065713
29995.082563844706
29992.395516467415
29991.08500940745
29989.98458833539
29991.545460561712
29990.298788398464
29991.884875706113
29991.28436097115
29993.44690607413
29993.72501367259
29995.914474063862
29996.259813304066
29999.369946454255
29995.8973530362
29998.078494722602
29998.52809669154
29999.603858516493
30000.476050599496
29997.309307461248
30001.12593431801
30000.7703344603
29998.87928676387
30000.049128653372
29998.923120644085
29999.139452536358
29999.976708011985
29999.78367600448
30001.060318732925
30001.107271046058
29997.606349899073
29997.907494414656
29994.05463647645
29991.695431090244
29987.608066319677
29984.96847821446
29981.703454811184
29976.818886614772
29975.425878189188
29976.054611100768
29979.3997095986
29980.90135192705
29983.14821796604
29987.130991213548
29990.18327663631
29991.70415630716
29991.925504358078
29995.51199497512
29994.641596148434
29992.979961203626
29995.84698710548
29993.089476652032
29993.783069985595
29991.41735760502
29994.09578853876
29991.18885435104
29989.767417836567
29992.791793383596
29994.67635069236
29993.533673304268
29996.961600874496
29996.941204414932
29999.039125923602
29997.36061184853
29998.784994334415
29999.358658584333
29998.601216335665
30002.05279065969
30000.04790424528
29999.68913434756
29999.576687012795
30000.24452929719
29999.17844136715
29999.682628186692
29999.269387555465
30000.12287050932
30002.51031193863
30000.78421765071
30000.062015036827
29997.73161916144
29998.936964767654
29999.70753305995
29996.885208269872
29996.94066793246
29992.627788075573
29987.51515925095
29984.792714125662
29982.63124864785
29977.49867263963
29974.49376154421
29975.43242711138
29978.77575057273
29977.64518107874
29982.929342639833
29987.862074870067
29989.55766367753
29990.90232336216
29994.073274667953
29997.056450276556
29992.972177894953
29994.63621283587
29992.786450381325
29992.289295376733
29992.51074532278
29993.792264177344
29991.568778704986
29992.565843430963
29991.501285877748
29993.615058938925
29994.098063666584
29994.130915597558
29994.763808504285
29996.979343436145
29997.89719518559
30000.036961557533
29999.883144057705
29999.592716081766
29998.826046249793
29998.566481367747
29999.46931034464
29999.622145635523
30000.672161430288
29999.079200530883
29999.503623626046
29998.18658000198
30000.338931070964
30001.18117699504
29999.49794359656
30000.581123388085
29999.020871471363
30001.255677869838
29998.03637451796
30000.884723372983
29997.814216088125
29997.50479916761
29993.69411624923
29989.27354135776
29988.21985652868
29983.611080188195
29982.322651680777
29980.62986857245
29975.981302150554
29974.909396436964
29976.767899227238
29978.46900091982
29985.044867737844
29984.93560266669
29990.366862600895
29991.677632675917
29994.360082444004
29994.714003461904
29995.6013960514
29995.39884291034
29992.880070231924
29991.904200522273
29992.0495791221
29993.776467786494
29990.487326808485
29991.227781172547
29991.33483234316
29992.306087176403
29995.269706417548
29994.610943771255
29993.96573424472
29995.765499223486
29996.738707662134
29998.19631995489
29999.74802868656
30000.08332201837
29998.532160717165
29999.40285168275
29999.586153247863
29998.94552461737
29996.57635295805
30001.906389503172
30000.839172090822
30000.58010045112
30001.20135912485
29999.604253404996
29999.529521071203
30001.41797415828
29997.640098279902
29998.9252248484
29999.22641982001
29996.68326331449
29996.345142149545
29994.86149850443
29987.728609865568
29983.86674835759
29982.257923790537
29979.070063713178
29976.958381175806
29975.651784240745
29977.772975794305
29980.788179392075
29981.971894004575
29986.200784936576
29989.357478126913
29992.164149016156
29996.268870188993
29994.866143371575
29995.859200465427
29995.23381233774
29995.652390370393
29993.8341061121
29992.054470011175
29992.40245948497
29990.581614051272
29991.484112227587
29993.636804023245
29992.310540359387
29995.411623550037
29993.83008119196
29995.18946397578
29995.45122569264
29998.241384600467
29998.104090576708
29999.162059193895
29999.95126382122
29999.166097008292
30000.989628573076
30000.396935148732
30001.70143097169
30000.55565691932
29999.82636408917
30000.193529404893
30000.50879291778
30001.22425571325
29998.621108543328
30000.639115456335
30000.94058337945
29999.01259623105
30000.450837238524
30000.593242533552
29996.275262397394
29996.443594152086
29992.693639191173
29991.762664105496
29987.21447828904
29983.63644698469
29980.47167327035
29977.362834378153
29975.05818470478
29976.89380241781
29978.885344772385
29981.953892152484
29987.024449377182
29988.25943556845
29990.522406635057
29992.910839825417
29995.902696431127
29994.49237012661
29994.59924311599
29994.244228456093
29991.90393255702
29991.467874840488
29992.08225773553
29992.1279297718
29991.29768017452
29990.36105033271
29994.571916443252
29992.857978027074
29993.76072225192
29995.981866215447
29995.78921154522
29997.24462289162
29998.916894048885
29999.502538678134
29999.397783072785
29999.47829836764
29999.821392177168
30000.587538153824
30000.14112562718
29999.619666275707
30000.618230956366
29999.06460369669
29999.938081825563
29999.850037969885
29999.200282582646
30001.0683736277
30000.417799030867
29998.10186478345
29997.190287109992
29996.24829285131
29993.896330063377
29992.812267544094
29990.950652870713
29986.080881670405
29982.176384105016
29980.715861884826
29976.048357208198
29974.325517043955
29976.077111572642
29978.827995035765
29980.593254267435
29985.12541295902
29989.768929079353
29990.921570104703
29993.15149856022
29996.283213290182
29992.341061465897
29994.82796708373
29992.562268102432
29992.030723827476
29995.074428980068
29990.479565541813
29990.080688413098
29992.722077762806
29992.94556250569
29994.29223477698
29994.135035559342
29997.538544741867
29995.539173121724
29996.58310275404
29996.90984418073
29997.84662008819
29999.14090379691
30002.037556015555
30000.807518173904
29999.746333121646
29996.81219540511
29997.79194467931
29999.3183285366
30001.358770013678
30001.64167528617
30000.317852471264
29998.820030779007
29999.988089797604
29998.909165735728
29999.298445075263
29998.103203019356
29999.407462443363
29998.26169075205
29997.236500492247
29994.608903766155
29992.84673137098
29988.01858383628
29982.377535313935
29981.96522742463
29978.39564674629
29976.691761424325
29976.859109356148
29976.408326052897
29980.679030493473
29983.40329008847
29984.95175612638
29990.881475848048
29992.906610412425
29994.65817284268
29994.53034102818
29997.302163221862
29993.216781936044
29992.015008279453
29994.133740366786
29991.52632312817
29993.482878548828
29991.590368455636
29992.39115627824
29992.877708111875
29991.732700991524
29993.712352507668
29994.990270247134
29996.96865639725
29995.37857698095
29998.286798877933
29996.246482349146
29999.80010102082
29997.875883916196
30000.547614180876
30002.21420042742
29996.681563781338
29998.823009287797
30000.766247543565
30001.660277156465
30001.73413933179
29998.077065727768
29999.741797981562
30000.401501514378
29998.08915911868
29998.55558818321
30000.27597851993
30001.215347274392
30000.171646486062
29998.923989091356
29997.724686337388
29995.649510053856
29989.433376097775
29987.820482136143
29984.60737945547
29978.88866003643
29976.776709480928
29975.467311244585
29974.642383236358
29976.097772736248
29981.698448465733
29986.149016510997
29987.342696680706
29989.925952185808
29994.180958621786
29994.057387045425
29991.74442753888
29995.18735553134
29995.270220604943
29994.39069606932
29992.1590731652
29992.529093816665
29992.756011935704
29991.778321818856
29992.084570626004
29992.376426839408
29995.78694449715
29995.50633462032
29994.531270959505
29996.498464060664
29996.200503626907
29996.815637950775
29999.57985368586
29998.48650601563
29997.047952309316
30000.030036121756
29999.294524613182
30000.15271895202
30000.01996805971
30000.017631612587
30000.09754760081
29999.03708232742
29999.47100368792
30000.720065754715
29999.35901271384
30000.97078190847
29999.21591690366
29998.93523679253
29998.038401009708
29996.564714601223
29995.05427897308
29995.328618155098
29992.394118447904
29986.892429192543
29984.473040773453
29982.05244999543
29978.311092976932
29975.436854297488
29976.226539834857
29976.79765756818
29980.643285852457
29983.550515668605
29985.560272269948
29989.90412741073
29992.57889112135
29992.813222374898
29995.693919418216
29993.719833261723
29995.019340622624
29992.71270504377
29993.5355800486
29992.3071037057
29991.186457755048
29991.892274412214
29993.57278164345
29993.477243507183
29994.992975882524
29993.980788481396
29994.727430533938
29993.58330500456
29999.004864693772
29997.410682099468
29996.995106014507
30000.829876365646
30000.76063820896
29999.7778663069
29999.996770127625
29999.1143754842
29997.84885161377
29999.348496902752
29998.6012981269
30000.204141385544
29999.797084599537
30002.356862308396
29998.868846322235
29999.777852742045
29998.183180606502
30001.48852915268
29997.235633514854
29999.982857891162
29998.387553825516
29993.51717053815
29991.611268748602
29987.335447335467
29983.27882135685
29983.489277361277
29976.024547405003
29976.858407892614
29976.164548596415
29977.517643204465
29981.139544244917
29981.96393810509
29988.878290216922
29989.088746253496
29992.101362074714
29992.322767643043
29992.042250843057
29994.81567896862
29992.79704115129
29991.151772331654
29991.31281910624
29992.717651532323
29990.39725579872
29993.52457121753
29991.594255645945
29993.24944547602
29994.707416056357
29993.400517139104
29994.498338626603
29994.896152813886
29996.04145512316
29998.496750240534
29998.211931007598
29996.470421387607
30001.44378221858
30002.93213483784
29998.602612357005
29998.756503886183
30000.397147213098
30001.41688901665
29996.61033645997
29999.341339366107
30000.409267434654
30000.644247468957
29998.43749409962
30000.953510422958
29997.978641617305
29999.116342644284
29997.125697173113
29995.550572166216
29994.874406235405
29990.40912462478
29988.43867139797
29984.10325389071
29979.499850375127
29978.197288119285
29974.875952124592
29978.19578885933
29977.99518383223
29982.037039612555
29985.38045294123
29987.497462066436
29990.26634779516
29992.708744778498
29993.503876375213
29995.63214350549
29996.8513497985
29992.869382041037
29995.132792259174
29990.76131967558
29991.233984764902
29991.635599357876
29990.869106112634
29991.11043801424
29992.213027677357
29992.749193369615
29994.538939336104
29992.79686987033
29993.543729279427
29996.181773943386
30000.109797413337
29999.050304305965
29997.917112435618
30000.02854568904
29999.776356394297
29999.706316993135
30000.285007399376
29998.455630735247
29999.379156180832
30000.23811253835
29999.737075817884
30002.0826322214
30000.2839920645
30000.71059042005
29998.58638870223
29999.283785999774
30000.50419132422
29999.792625188726
29999.009817205773
30000.40045068323
29999.61828005078
29999.464280358687
29995.508030094697
29995.046144731634
29992.079006645632
29988.75769032056
29985.647843511128
29979.280061892892
29978.03508925042
29977.126693102273
29977.926594020537
29976.059481010798
29979.994150933595
29983.44813842376
29988.793861360344
29989.697645645905
29992.733268246928
29994.000941875038
29994.0367763725
29993.610181153137
29994.28722457125
29993.525403041003
29992.82012739755
29992.520657906633
29992.25037876225
29992.2746919395
29991.974126795754
29994.43602514107
29993.258788814477
29991.34801960772
29994.396542003768
29993.95498178397
29996.33329170835
29998.301106299758
29999.694206987926
29997.5280483478
30001.09465305416
30000.923347777298
29997.741455009866
29999.838629701586
29998.487322947793
29999.723477424042
29999.30365432448
29999.304765000466
30001.11867041216
29999.789797986123
30000.805450330205
29998.552208108667
29997.71702063965
29999.493849736675
29997.198310789918
29998.143383882274
30000.350808021736
29997.774777327293
29994.724767382948
29991.63729658847
29990.419990507882
29987.114121360915
29982.965195933204
29978.747501881306
29974.52690764202
29977.058855911815
29976.6988882778
29978.458998352857
29981.23057642029
29987.2977967732
29988.708365032046
29991.579068270563
29992.939610826073
29992.952628307154
29993.736384097476
29994.717505470584
29992.65312971848
29993.714612092986
29991.95649265301
29993.0559908107
29992.432559681904
29991.098740371082
29992.306399394703
29991.657583672964
29994.26394227677
29993.994405299567
29993.01580023849
29994.790484856967
29996.026720268223
29996.839348547226
29999.03793194625
29999.540563542683
29998.64702752162
30000.29161692047
30001.736998063872
29998.31824599967
30001.137547123653
30000.185391180763
29999.514046986602
29998.128381321403
30000.554138822194
30000.57461885616
29998.138483231673
30001.077779813284
30000.392319905135
29999.480019056908
29998.474233499495
29998.84227310994
29999.67299883047
29997.897739334123
29994.70865101971
29994.165903772344
29988.256163143094
29986.042205557904
29981.91107759209
29980.691124100158
29978.57372469759
29977.02217023483
29976.12318252574
29979.250822974103
29979.56506666269
29984.462958463097
29987.41202858324
29990.97559551274
29995.279434001597
29994.997890439063
29993.33132868101
29995.48950011354
29992.724555380926
29992.224169010264
29992.90366705821
29992.799089504057
29993.05195192874
29989.547529601496
29992.572810445297
29992.924606332857
29993.917917377694
29993.333080277407
29994.16039491901
29997.911131494042
29996.099273600175
29997.490620893986
30000.225992652144
29998.536950513844
29999.42369339064
29998.95367859061
30000.24383766484
29999.35963803651
30000.855316071957
29999.673609563346
29998.59059441871
30000.559135890766
30000.375032321757
29999.02672873297
30000.603825517377
29999.54166216855
30000.444292063898
29999.742709519134
29995.47584369809
29994.588872212556
29994.464734729394
29990.985784159493
29987.49441072007
29984.878508307283
29982.720328990163
29979.755806033958
29974.369975677495
29976.183077252215
29977.88168270681
29978.27736414459
29984.29386574956
29987.875341910472
29987.647519001457
29991.882675229037
29992.784239188873
29994.621812183177
29994.40544250686
29995.12085652175
29994.217588123556
29993.723413717613
29992.719489863448
29992.676571983102
29990.071408515443
29991.55293072471
29993.09916234063
29990.92064806096
29993.542047495772
29994.464238015524
29997.519179546605
29997.18456953106
29998.388922023874
29997.299988935712
29997.222396275116
29996.733751449287
30001.3288065016
29998.6919623806
30002.508129237867
29999.101003200933
29999.09441147939
30001.533706519214
29998.840038360337
30000.301195962144
30000.317920474707
29999.59595125579
29998.768287248397
30000.314908494332
29998.50686239247
30000.03726132992
29997.919832456653
29993.63534542788
29994.01824020134
29988.762356979627
29985.709434396897
29983.47671472293
29975.937637349714
29976.6341651738
29976.623442854063
29977.469744780898
29977.840126305597
29981.303332437525
29984.91235610715
29986.68574960672
29991.651537813304
29991.419888208333
29995.378329615643
29994.510257077938
29995.712975670333
29995.831807039285
29992.91961055915
29993.961080554698
29992.076040578188
29992.715850637072
29989.128681629652
29992.88370659127
29990.94918102622
29993.772177601488
29993.63024583723
29993.94079194716
29995.87975303223
29997.594533608342
29997.1809407881
29998.356236399497
30000.113708663393
30000.31525917271
29999.627721166424
29998.669186348565
30000.319678243497
29999.362679188835
29996.964163184086
29998.95302316328
30000.0434737078
30001.205646268434
29998.42041797181
29999.654195013783
30001.10804294782
29997.89612953623
29998.093503769014
29996.63479424566
29993.785097817923
29993.236145245428
29989.80437167675
29985.569506443415
29981.104121470307
29980.243867759662
29979.191419520677
29976.611771337735
29978.10184282891
29980.52072227519
29984.03227696371
29988.316392581233
29989.852912316826
29991.8741095551
29996.10576709617
29994.491863329753
29994.898077922928
29996.54748126748
29993.166847960918
29992.6523298538
29991.52438551144
29991.50613797096
29990.844528802387
29989.741256770973
29992.944987551164
29992.159365463565
29994.69812400163
29995.663522221836
29996.559782784916
29998.79999072009
29995.00891976798
29999.55413749796
29997.126256745298
29996.003696792483
30000.113390917904
30000.1152368902
30002.68195823488
30000.834510485212
29999.712838903255
29999.780357806583
29999.28146416067
30000.74759744197
29997.864405434906
29994.77924415836
29992.916673256976
29989.129979801593
29984.307656316476
29981.047565656543
29978.545918822747
29975.48651374318
29975.38579933489
29976.70405805443
29978.912997080944
29983.901233738557
29986.204609385397
29990.076149614273
29992.058683223935
29991.39961395718
29993.428898879058
29996.172843182427
29993.222505913713
29994.86199097268
29995.167312326892
29992.30249074464
29991.18162064969
29993.05675362845
29992.670745820888
29992.848650356205
29991.69383871966
29995.226878528858
29994.75447027018
29996.81913456491
29994.997867372575
29997.41702431594
29996.975973862794
