69978.88608230314
69993.78013968248
70058.08622068282
70035.13438748197
69947.70788874241
69997.12484982697
69926.08235562674
70050.161805207
69951.85267265925
69984.43561509643
70012.86139163536
69938.73814457271
70052.16507423781
69920.18784586257
69905.6266931875
69998.28427099563
70010.7683660556
69906.3057475575
70009.07259649776
70007.11944016705
70046.22224590553
70064.8834261207
70049.8817873614
70005.04533196174
69995.09470174345
69976.57558232486
70018.26614335424
70087.41461274748
70086.649287559
69876.90835805003
69944.58303206634
69926.60451559932
70027.6468451413
69947.74554490963
70006.72903334165
70014.89534382828
69990.68583241537
69942.90393101178
70047.33449668989
70078.45204639954
70090.5004494829
70022.44295650326
70088.90191262272
69979.00020592308
69990.7767696012
70015.23936508976
70061.44268566232
70028.67922595632
70032.47881080469
70042.574984969
69975.39996754038
70042.45666074718
70008.9699434466
70080.87180156363
70047.18111448978
69916.53042577386
70012.93928864524
69976.27808526128
69996.72020725606
69968.70914208416
70070.89918813808
70004.77887694692
70052.4628146008
69987.48823739347
70060.09757706765
69942.14616172115
70036.48279682004
70035.52254466576
70069.54600199465
69970.99127833663
69967.7632865094
70013.11903504535
70050.29468849747
70034.32494571354
70003.60359647762
69956.0293891836
70049.43499784781
69945.38641201821
69989.15942429965
69852.78875875993
69903.23420855142
69983.0229455168
70122.2680501095
70000.12858272136
70057.6762038117
69928.02699574873
69923.06131306876
69973.79871353961
70040.07667256697
70002.8864480666
69994.99849147318
69967.10050407638
69992.32628328845
70009.97876615603
69985.83036635134
70033.30885480175
70002.94852141726
70024.55190727497
70020.41093662268
69987.14290562524
69949.56064122022
69914.24108308343
69906.3046479348
70015.10702013687
69919.9513331308
70011.66000568116
70010.39279556577
70004.80684300835
69970.66102521526
70025.05746703167
69917.10435001594
69999.99515917605
69898.07716895142
69893.16809230542
69876.29271135382
69796.31431100766
69720.75476913311
69592.36254910965
69468.41498932039
69372.38690538547
69354.91108249499
69293.6289226184
69153.31926645336
69093.19636798366
68999.23037835456
68980.29228860723
69055.08064109448
68872.07957070255
68905.86333728787
68965.20218404499
68959.50189254836
69156.76460914772
69093.27857748939
69202.57756222041
69290.18409669262
69373.42896587991
69419.45685774683
69508.39661270134
69587.03009967791
69642.22014966373
69684.42508099273
69619.9348739289
69672.25579059684
69741.81525379364
69823.32201660151
69683.65507919864
69787.22264418195
69737.63635824803
69812.89963335956
69742.44919759712
69674.61126128645
69584.23505096359
69648.31394928592
69653.33133198535
69639.82089612671
69592.60356000751
69759.18836543914
69705.18386629535
69634.73361598092
69621.8507347847
69639.33032158903
69650.91549753211
69636.52943812912
69713.9875501724
69665.4314559452
69713.82564577965
69677.09381275492
69727.72517263434
69813.94488326713
69731.64999113986
69887.32221624933
69880.89321146772
69774.7258773314
69807.77556926425
69911.70921789817
69971.6846747883
69952.83630533065
70012.27733964806
69976.57183397301
70025.50591338039
69962.80192839379
69885.48681715089
70017.88914377686
69945.28287275185
69914.79859744046
69896.77768980247
70026.13061019292
70044.3997739407
70028.06305436595
70020.97616477714
69952.74385671112
70023.15738610303
69928.36092826053
69962.66629872222
69956.576349848
70117.37881184228
69962.32638090657
69944.0636771597
69994.60820727354
70031.66024549106
69930.23498643236
69906.52239554313
69983.12436158027
69958.8192464533
70081.5358682034
69993.4818532843
69962.68468645388
69947.5657669641
70003.83343835849
70013.62877191196
69998.77469124061
69972.7908217439
69992.33445396488
70005.63184612975
70051.2875998001
70059.09405857798
69927.63500432522
70021.86357460092
70013.35296885777
69923.88464658655
69915.12623280285
69892.73303576064
69888.33756306052
69789.28487445685
69687.72059491703
69570.2756502477
69620.61540080201
69504.97842641226
69472.74923530241
69299.46707076143
69244.2094272754
69166.58556405833
69095.31620405328
68936.04590761714
69028.04178583846
68975.76171671947
68900.85926970976
69045.00039456811
69088.84898357574
68990.94411840508
69030.9131404594
69010.86710914406
69168.52369220238
69304.89990825164
69364.26903995211
69438.51609072599
69466.88626318105
69560.20603448366
69701.45676043436
69614.96799698383
69648.62550338366
69786.64017395863
69836.70664804232
69703.29175175702
69783.85281338826
69659.6664723031
69785.51243304725
69692.14270227202
69616.89808950166
69798.31106082223
69667.5812096308
69657.65037051385
69691.12470515326
69584.57555105354
69640.31026480893
69569.63486638079
69557.93825669026
69729.83975195653
69611.04216733783
69727.45088616414
69544.52779706767
69756.17603620583
69661.01040685122
69723.79301859092
69700.08700663487
69766.27854242032
69658.88977403764
69778.15557486616
69784.79884542989
69765.22222287656
69877.8881520667
69824.51083556401
69842.05261781476
69948.04891811975
70061.32695052838
69924.74380038571
69947.15324630537
69930.50242449802
69976.64665307
69970.88991528614
69930.33613709077
69971.79144794494
69861.49218814529
70039.39098284845
69992.36609506948
69955.10767146474
69964.34345500736
69966.37404467401
70027.83981399571
70174.71225311424
70115.91681234483
69952.67462300873
69949.62239646817
69968.84337029091
70039.05952757933
69939.78322127856
69932.20050695344
69927.29719630477
69908.00508670304
70105.38291194904
69925.59750241219
69992.15922115171
69891.54266846766
70080.78684773327
69969.44537763308
70075.88346101673
70096.06971635441
69943.61641679982
69965.45316834161
70002.68687514894
69973.41267244918
70052.26225323591
70015.27191699871
70023.93187231147
70032.23472651745
70056.39616016227
70008.00975434619
70002.64340300455
69842.18552060208
70020.02034598011
70067.53597725397
70016.66151387552
69979.01223119682
69924.0593146644
69999.87653886908
69914.40346636552
69870.3907777753
69818.77042134317
69779.25637021466
69690.61207505809
69642.35974827253
69567.13257959782
69548.04180843243
69436.24355073857
69382.73629852686
69306.86958991276
69263.54581192721
69179.25163207379
69026.20328991699
69040.93987069199
68860.58053633769
68915.63439129986
68995.49791177924
68962.23494336367
68962.11674923862
68986.36096248972
69071.1140199036
69078.51426965147
69171.48518774833
69253.93584530074
69386.64170744731
69396.26317381574
69593.53898105297
69578.36600677187
69637.09451737769
69666.65570201004
69663.12360692797
69693.28439178657
69753.80039709255
69717.86348761138
69741.20515121614
69768.39429359634
69679.12119488404
69830.54897631163
69756.93234965374
69604.56873165938
69718.29292320625
69648.17926063277
69681.01131397358
69673.63941472849
69638.95808097748
69661.85662396229
69598.13675629765
69627.33950185005
69616.66653823908
69604.95822374293
69629.67354952554
69728.29924736981
69771.25907868384
69737.1419263486
69645.16020787162
69762.68280653692
69789.2960712426
69850.89443344879
69755.26094352188
69894.78011552186
69996.23282629973
69880.30895100754
69873.78270539257
69855.36264265935
69844.73556975156
69983.7968928528
69848.4094930905
69898.3234778318
69968.71939482672
70025.34344516271
69937.9600240222
69964.38717799465
69906.0361780403
70030.17137687515
69930.74203425074
69948.72969873088
69994.10304610156
70015.70515616234
69892.51189565666
70055.58529438217
69965.02637111911
69932.19513218799
70024.85130950231
69995.00526842872
70041.01477267976
69958.61099537033
70023.33465950399
69986.56498065937
70035.20856635904
69997.7051417225
70037.16297807226
69991.71063546423
69993.46579346003
70011.49472871303
69984.01916140337
69983.57480564479
70022.43873519005
70019.93047608365
69992.61635628607
69979.19538031721
70006.60388123586
69982.30771631694
69978.29173276568
70021.37460412005
70032.6527817993
70040.98679575238
70000.45922241721
69963.40678598268
69916.12666264937
69919.16515754264
69925.7816577019
69937.60405481198
69965.15742026626
69894.6024280376
69875.42061323072
69777.27738411349
69743.93344873456
69632.62984280371
69670.63182322857
69611.12630419662
69471.00825891917
69303.59834618718
69419.3405074527
69254.91094088773
69141.57223082484
69041.05883950922
68979.15124966126
69013.61374640364
68947.34459147236
69032.55644325702
68847.02180235533
68977.50095940297
69033.82337250619
69046.97090041348
69086.78162688388
69232.96750301405
69319.59329088689
69423.75362537241
69426.46992997888
69451.76859503724
69615.50157714626
69635.35806344026
69690.75529831153
69694.18973483442
69786.37577137888
69740.91695175474
69809.64617899776
69822.56292851595
69738.73304879924
69765.50045788754
69722.83438385594
69728.03747619849
69711.97975200799
69729.34663034145
69795.87900661993
69732.10496033053
69532.72360382362
69683.79937536968
69618.88787432015
69575.48412739244
69746.08544279152
69633.29177569158
69706.03424111998
69620.66053412644
69655.85601194628
69685.146443417
69636.49303083381
69706.1141000995
69783.16912120888
69769.01395127588
69806.25595079886
69757.42792627013
69848.94596383395
69901.48358244501
69920.63020260996
69884.24244047962
70051.26680604601
69943.01879265743
69983.29145200936
69964.51536723148
69910.82665388807
69941.86241004242
69870.47128819938
69986.85361340315
70032.13031731648
70045.4275752201
70057.09363729926
70038.71015071393
70005.15843873868
70024.44022563679
70012.3258062815
70135.38308355442
70023.5254929589
70130.5048448958
70067.25912929939
70060.22443501733
70005.39725490104
69969.87936241626
70006.29219442263
70054.20767353999
69908.35592101647
70021.05930376859
69986.39907570578
69980.45219828787
69981.4337937417
70029.12390788304
69997.33315543541
69970.15930093957
70059.79414702716
70013.77929419914
69996.11520801147
69965.48358924259
70029.22004957263
70001.70630959481
69981.25776031167
70082.75981685404
70050.16516722043
70110.33490929862
69922.5340771314
69849.50119028811
69999.5562915262
69985.30947468568
69918.26103750274
69878.54125286335
70034.47740153737
69979.44399769326
69897.11230611014
69896.58838416994
69765.94853857665
69657.28222528815
69654.87296245052
69571.66726926753
69413.84877042787
69293.06352956874
69381.40904243483
69209.39918406843
69189.11076753546
69079.78436470238
69043.10278844093
68977.63862876764
68965.89129078425
68945.85512015353
69001.90754924387
69043.55958716254
69086.79907562365
69088.30155046615
69182.27498647764
69325.62967314484
69299.50204212731
69381.79277599676
69529.55958099276
69517.53247565706
69677.26608282953
69762.92550819537
69739.2867358973
69742.01451560216
69809.9213074783
69720.95540306074
69768.76365861329
69734.83832472516
69787.23478377094
69764.18214409117
69796.30219673105
69780.38743754153
69802.43099189308
69683.36512342753
69707.4038980517
69621.94378051918
69520.02741123617
69680.02178995246
69743.85478268297
69639.35449645773
69582.29436242655
69670.17812933336
69609.89132560337
69684.31876471857
69703.71859773833
69731.98788034133
69695.44520268119
69711.65769884785
69675.65075388651
69805.51107933179
69761.34229846047
69885.11714315966
69831.73035185349
69940.5957866649
69872.63681540328
69869.21383063223
69950.41205812604
69992.7493800515
69996.80032932539
69964.27760813941
69953.90238841702
70023.0237690266
70019.82729818166
69963.00534976108
70036.7549275701
69951.99575978103
70076.21960848318
70018.52423560954
70039.48567547798
69893.58155082194
69963.3009601351
70029.51782723572
70042.0127791044
70131.26270110591
70041.42669059837
69970.52657479663
69924.74259296012
70008.3120298403
70048.24396050196
69962.61317857432
69938.84412302214
69871.95504092882
70045.4756296567
70042.6298466282
70001.38562880286
70069.46516027927
69993.96204241534
70047.31392295378
69981.57812355706
70042.01874658617
70019.85971358302
70052.86428377654
70028.02502738449
70037.0043118815
70057.46276162635
69933.22071002513
69813.63227488434
69940.44008212395
69990.81649673588
69890.39280207416
69701.9262641612
69693.68759480971
69708.46275263486
69626.05716596323
69457.06004378678
69528.23017146342
69303.11183993048
69278.68635192476
69264.84619437523
69064.30077609759
69147.51566813372
69046.62157667518
68950.47027577783
69024.84593985995
68894.84587439703
68979.38590162384
69014.93255657115
69127.18689185072
69072.46450327021
69130.32632989423
69257.21696227814
69388.09945055749
69390.31622863153
69394.4364469387
69515.3454392178
69592.00029461733
69657.35692079795
69660.61758376063
69614.84365956746
69718.75617847708
69715.15735180676
69736.43067019257
69791.81274480825
69809.81037350961
69806.46911723721
69731.91717044776
69707.9594266831
69701.44408534197
69717.48560770035
69667.22546638729
69712.38141156865
69615.50988539598
69657.63240813135
69650.99057587581
69594.4322690884
69656.1691348656
69644.5289804715
69686.88650330115
69705.54814685902
69644.35555422545
69687.835808966
69749.8316648721
69755.86455662614
69837.5948672635
69880.36722557139
69876.43682497708
69821.21186981027
69867.03388026691
69842.27302955599
69876.87223248256
69887.10499356447
69838.51727888278
69935.93597549242
69910.48583731712
70075.737969925
70028.17204735214
69992.28731130861
69983.96702535893
69991.30324809838
70011.71621435607
70151.61144700345
70009.77857391012
70026.32411416485
69963.5067288623
70065.53083627974
69965.63513729403
70071.15299380402
69988.47733021251
70103.05361998412
70055.31318357853
69950.17843377957
70027.78876106405
69989.15229906057
69969.96482751785
70011.3062560954
70098.62220044632
69972.94626897691
69976.64841214597
70013.60535503755
70036.99982460053
69953.08862202296
69852.64226388284
69986.11616973353
70074.05493318866
69982.80514470107
69858.40313379107
70040.8660043376
70123.6632258678
69995.2833344931
69962.7254013238
70050.56182331976
69976.07976801046
70069.69809399938
70013.44065294068
69952.37873256547
69889.69134065878
70035.34515805407
70037.03778534466
69879.94802857183
69851.15058858413
69939.33100411553
69728.9113691589
69761.45769933495
69684.97271041054
69608.72514537165
69509.53847585389
69433.21817729552
69324.97733924756
69249.8846251847
69171.80365513862
69084.15881884428
68989.58536889027
68930.84468678791
68957.75495339245
69026.57082720468
68939.38606954206
69016.69254051283
69006.20017827145
69153.5744665643
69167.98885138353
69130.40107659828
69239.71412870433
69340.27078183653
69476.75297156554
69510.14911719746
69648.29632894216
69652.14452976821
69588.8151145608
69728.5771691819
69697.51054134089
69713.65866649612
69792.38952400845
69756.33086066405
69823.04686555585
69670.24635199048
69804.3093779312
69695.92492620216
69703.08413810871
69719.35989587422
69681.98220915638
69608.4666711613
69618.51443172786
69689.59831779997
69601.27240569796
69598.93269193654
69617.79900344694
69681.4105058277
69691.52379615467
69746.66066185258
69679.64769466591
69631.44453280751
69671.18130504839
69770.13239268809
69720.97287473358
69762.05222147254
69776.72894165851
69912.09937812541
69917.07922042726
69788.17576129346
69947.18826787463
69868.25475534901
69971.94150091294
69896.71596053634
69940.10516744522
69912.88569755627
69885.63745124868
69898.17987527806
69990.60408961914
69933.56867512809
69948.45580174452
70054.97450659395
70002.88248265389
69950.42488121164
69927.57144132382
70090.46918756784
69974.20214874606
70063.52301827587
69919.7805533305
69915.909143359
70000.1225295006
69964.49758430259
69925.19724730754
69998.63950660906
69887.37919018786
70044.01136588582
70043.93628393502
69941.69774932245
70075.53366296945
69964.13538113682
70022.21316813763
69924.76288941296
70000.84212750517
69894.22702097849
70046.06229607316
69982.31514500907
69996.0471594514
69946.57855740013
69935.88298397095
69918.9696417142
70026.49249007969
69981.87267935972
69974.4965221075
69955.93133024708
70025.74675535629
69876.64747890236
69933.02869276196
69811.0542159002
69929.34318543965
69948.4281205179
69996.73242138626
69704.1117869654
69769.77856097926
69717.13679704454
69681.24150630449
69505.21505882592
69446.48135983002
69366.36617908132
69305.50901655591
69151.05423033847
69398.8240931975
69149.2797464147
69019.64402464015
69008.39575926535
68912.653211943
68982.20002320268
68884.66742490586
68931.82574898952
68951.53266486942
69069.37344988037
69145.47820983556
69254.62832750323
69280.82334953209
69373.20423622993
69458.34343942456
69482.92148428631
69595.53531222974
69561.76728647036
69663.73923500616
69668.77926725727
69786.204977639
69780.61601908675
69822.7192278043
69737.89014203502
69747.06992563745
69766.39598204593
69726.12229406934
69780.52352652568
69783.43591787068
69678.41632918404
69574.68990766135
69653.79396999227
69791.09564435284
69639.46583972238
69616.14594500221
69633.65429249345
69714.05595475987
69641.45858729025
69690.02029286932
69599.86246340223
69706.29689798645
69636.93369544293
69784.60091360958
69660.63038259382
69736.77692894233
69818.65112577002
69731.28788539195
69766.45496927894
69910.23391206023
69891.40970439963
69863.099433685
69926.86951407192
69871.59760850878
70016.71545895148
69920.47082244902
69972.76043610608
69995.22777033209
69957.24067165286
70005.24640914742
69866.065229629
69998.14353561036
69984.83997406717
69993.5439533906
69996.60576632607
70088.7837811344
70043.4901681042
70055.79968649025
69999.89344216326
70023.87112510983
69998.04647963484
70065.66402235745
70041.56976107792
70018.0457784205
70004.50510352274
70024.93218941243
70088.65285480104
69997.82563287798
70033.6011690198
69997.3547890777
70004.99220545481
70018.00551062575
70053.82698304346
70016.11753920096
69947.25449102992
69935.38023370951
69999.96506497815
69940.08580068438
70043.11483910396
69974.9603667906
70052.74367334902
70037.80525942541
69914.51843310581
69866.40259771462
70036.10951481316
69930.34629062223
69925.94985716644
69947.83638163007
69932.48839969063
69906.25320093648
69898.56940639712
69862.7585087774
69744.7322192173
69820.48446324281
69587.4826841129
69459.70264733862
69501.86986503447
69490.62317510135
69328.38577915933
69183.67317873414
69180.08449055885
69027.28784456993
69041.78628947292
68969.96633539961
68936.9708548327
68865.65768783365
68907.28548676163
69014.07500377938
69026.32047033505
68965.21888694314
69063.17539435423
69217.929733349
69217.38645973009
69458.77995903436
69484.50751238361
69484.7114227198
69540.2872677158
69731.06401015088
69614.43208032622
69712.37359434897
69718.25618550708
69706.89008057467
69710.00513919813
69740.99047077028
69803.44913583325
69844.79118025044
69702.03419902998
69702.53482998158
69668.03333919437
69812.04816463831
69621.11165478584
69720.67909895536
69674.80083398704
69599.89154121139
69680.97172160725
69725.7703667416
69721.70984480236
69592.12841358478
69657.63761772207
69670.06959494384
69753.4367748272
69686.79996180761
69717.94611481542
69722.62695817908
69815.08149393929
69840.30505852823
69824.43145193251
69875.11207321665
69712.36716581497
69914.09510684651
69869.78291258855
69864.21827762779
69919.60287955755
69952.20346117853
69815.35442261671
69886.80932584005
69900.81397893246
70055.02441860142
69911.11837026443
70008.87141869118
69943.85062677406
70013.82012710355
69958.00797025727
70062.59503532866
70010.17465404005
70124.35341353886
69972.59409596722
70030.80488631187
69945.30970841399
70026.01790080145
69922.37663765586
70004.94892126914
70030.26708600084
70058.75948015093
70047.03227297823
69984.92834165017
70061.9527401714
70039.52494396662
69922.98109253512
70074.4503003174
70055.81238933762
69975.41144585266
70027.98784637243
70039.00973489996
69949.50010554727
70011.99686951238
69935.81011748273
69978.84415767135
70023.42167545199
69991.7864085097
70018.52897904337
70042.67771631245
70022.4201916118
69972.1384594436
69922.72273794316
69951.61850281656
69975.94940911194
69903.61811585662
69872.00938718957
69866.87162597632
69837.50264709603
69765.70082281633
69646.74478892701
69663.12632842376
69567.37576262196
69401.33589835506
69325.19585796431
69206.1367045229
69118.9942282287
69153.1367404776
69094.34911278839
69036.23976323157
68934.86279953203
69057.55252550676
68913.06413733831
68845.8809496661
69021.15730315077
69082.16278471444
69176.93967510936
69148.19512519546
69310.44838952387
69263.48046215448
69502.74924961942
69585.97266123597
69550.20261980711
69643.12551791784
69666.99196214121
69610.25102033974
69784.12985521386
69790.7563693517
69715.85997756584
69750.19070882224
69836.97066596999
69827.52755253334
69716.01169986073
69698.63324126745
69687.53987233594
69706.48151848403
69708.8140619271
69651.34168523875
69569.69039588638
69633.21244581233
69626.57453160253
69671.72439007809
69683.60427360736
69620.97471499698
69612.26286880848
69704.28563257954
69586.58843996217
69671.31419771661
69670.29153478428
69604.28251253304
69717.97627954974
69764.89910360942
69744.78597202075
69752.13704479543
69737.95737312775
69864.07047815285
69915.50346732051
69890.6883399613
69880.71165830888
70001.66376367229
69900.62075890938
69819.53810832421
70023.08625062417
69938.72806422616
70037.28307142403
69928.64884402277
70083.66112770698
69962.44186026588
70056.3384623896
70046.63060337162
69967.36588992733
69984.58473004615
70058.59992862034
69901.41223943853
69944.36258130679
70052.01419874828
69990.68996827032
69963.95988927298
69946.13656475149
69972.60534137921
70002.68875858282
69922.29602424847
69976.67356332875
69988.05358192684
69999.56527790832
70015.3849484601
70015.66619652147
70034.40230400635
69921.38387851826
70010.01190742855
69990.6845931569
69977.02002993964
69993.99267986297
69960.87380701321
69939.44511172162
70002.29040262826
69964.81166473786
70043.85115373133
70081.59464753032
70011.46303883163
69922.8967381033
69997.18784775207
69956.27931052414
69901.30656242455
69938.78105562921
69908.76853712647
69799.1595883392
69804.3516019865
69806.6784688153
69667.67461552711
69663.62424811334
69644.04555468552
69436.04149754332
69342.08437951969
69192.00107998271
69216.91421706778
69104.68502033257
69004.52012516264
68974.35427201532
69035.28929678861
69019.31878742081
68951.60350935692
68932.55199034371
68906.75018592413
68892.95133336468
69154.1195492756
69237.20579642907
69267.54057596011
69344.56350616667
69371.03381448444
69498.20242635388
69545.16801869612
69607.64723310313
69664.5070264772
69656.64704268838
69701.21815915796
69676.47562348116
69723.33922129436
69808.4846406357
69777.65528228841
69802.18552296818
69754.50266390112
69748.32372225463
69741.45579437114
69728.85727766353
69761.2013474216
69647.71018776702
69711.99453005199
69651.33311042812
69624.00099170019
69651.31520359748
69699.56550725157
69696.4571807476
69691.69343272515
69632.7153682185
69622.50172170697
69700.74657271817
69713.97887598808
69696.59952744607
69727.51697430963
69680.99663722362
69783.89038187245
69777.77158911739
69755.84285750866
69849.26167478862
69833.97414328658
69894.96098982265
70019.74553326883
69889.36228515336
69967.27721234415
70040.14228063078
70008.16729553953
69990.81639471721
69926.67360989952
69903.26477353314
69893.29359701961
70064.13100883919
70025.56550511518
69945.28890722254
69973.38990486061
69970.48876252715
69922.83507238321
70069.64780826094
69918.06941042506
69984.57545848588
70020.20188352767
70026.27176103998
70027.17275921168
70025.78471001836
70102.01654526954
69979.23194653222
69919.47620957407
69930.39436590191
69996.18967370199
69964.52507417471
70017.73380165861
69987.87021370803
70040.58570881476
70022.02126047922
69974.09807439033
70067.80322316803
70019.69505314669
70123.656769562
70021.66577205775
70006.79040306683
70034.22330238692
69939.16356616432
69972.36545480478
70008.19556636557
70016.124996125
69994.10031101882
69914.76124996576
70033.56840569626
69917.99643840951
69949.49013418274
69933.14111462947
70051.18970623314
69900.44596816799
69861.34457994024
69865.71523853844
69886.1837466964
69782.69565055105
69864.14376733455
69750.72101486678
69669.47077125905
69591.96885983662
69488.37683811602
69337.19748584837
69350.80243490613
69270.56093976868
69040.94153966328
69074.01276607909
69022.26177572763
68975.50288090821
68978.51267384118
68909.05001407774
68956.36221928723
68982.55412982943
69048.87815259618
69073.35824395098
69157.36930257652
69244.46487023222
69263.4093577777
69309.88389382341
69482.88079506249
69605.41418358212
69545.37172519794
69549.13003922068
69665.6210292009
69779.70982430648
69704.39812151133
69734.89040184973
69808.22164587841
69708.39845454051
69701.10166967277
69758.88693497305
69651.32419850213
69703.47488683551
69650.8928463182
69727.01455421717
69655.08448386572
69647.91049188633
69508.09137049945
69639.43986542415
69703.96267958437
69560.48868493104
69577.06140020055
69635.20952967233
69562.5941006022
69743.9998018568
69597.27308881225
69715.14496634135
69673.98069918086
69748.20766051963
69843.29949601031
69761.96163838299
69759.21873197849
69871.82355793951
69805.16252599155
69835.09412617217
70014.46854021683
69881.10774364606
69988.43051743288
69917.875212925
69959.51465586106
69911.9223057944
70006.60418443549
69948.51917221565
70033.09823108447
69911.40084624442
69996.33172534753
69967.05710751137
69980.67240795675
69990.60204509606
69954.07360298082
69973.07181291094
69873.23388841473
70008.77046900797
69957.14786089347
70142.72698221271
70009.37413410746
69992.4728904362
69960.08736967019
69982.25113290892
69933.99102083777
69988.30714749213
70012.1946310277
70025.61970741286
69928.49750170278
70100.0244457688
69975.62186760576
69888.16076548958
69932.4486106181
70031.90769984775
70112.67279799869
70067.86819740171
69923.36883829927
70046.4407837122
69955.27578096378
69935.25073212045
70041.38238419508
70022.0919502942
69992.08555587615
70020.48396905839
69928.01473711099
69917.59926514176
70077.88900183041
70007.3588469772
69956.19534621332
70004.45846766174
69881.64515413727
69906.50337912404
69825.40377294223
69864.62452411097
69830.59452697789
69736.66715112921
69658.36119682532
69570.6341926187
69530.39063784343
69448.99335966344
69370.39594729205
69240.19267617282
69231.94871238155
69141.55201720876
69011.66185996351
69044.9052446109
68976.53265044221
68946.12624037126
68998.01625057218
68954.27435134402
68902.78489667954
69065.06976761515
69128.8059463499
69165.31064087493
69262.57726948422
69317.12752720906
69499.61783383253
69489.14068829302
69572.5495606874
69625.95787589371
69676.38843540513
69753.37096279419
69811.33769857911
69671.74591519835
69823.52511539304
69722.32012869179
69609.34324866769
69733.97213734711
69725.83563548035
69783.66427991264
69738.13809034985
69717.10443386463
69686.74637547437
69757.7963695083
69671.13027116233
69714.75335849897
69623.238239984
69644.7269308527
69745.99856294968
69581.78618244441
69602.74865274111
69765.42423131084
69630.60824235235
69665.06108656422
69760.78623887732
69755.3488330075
69773.9457556102
69720.18691024561
69815.13994076262
69838.74290034748
69727.03737476756
69819.552325967
69909.9928310973
69837.70241475682
69905.77444102797
69877.11548897203
69931.4412204906
69858.73171643558
70037.72839765376
69849.23229965192
69934.97621860825
70025.72966357827
69948.62441608602
70037.71224845253
70050.96467099954
70021.39818274665
70052.88306335786
69978.06565372678
69893.24804416814
70087.56530144037
69951.29569073001
69909.9449650765
69955.09663603353
69983.06498366156
70056.63430244909
70020.71323675077
69850.79578888229
69960.71368301634
70078.24912001345
69947.69215109384
70062.9445914105
69932.3433080085
69998.31238656944
70016.39658635209
70099.45665064116
70048.36993262677
69952.85523219682
70036.0603776952
70041.04794195929
69939.45485305013
69965.25800687568
69972.21131783108
69987.5305422647
70083.62052276322
70012.72188713273
69996.18712273113
70011.39393243245
70016.92757078024
70041.32783484047
69929.106040256
69936.97346023622
69929.23607337661
69967.46567562326
69811.20528592276
69806.81516850651
69803.42481002974
69781.08373930687
69740.431011831
69591.31563467842
69488.02375352879
69528.15102908795
69399.70698431051
69279.06623164406
69166.71954170606
69200.95459155727
69048.4774453811
69060.12822256488
68935.8170963102
68824.79754569229
68885.85726361148
68998.54662475918
68957.34920378032
69061.67059667282
69013.19703706878
69230.34168830991
69203.68348019979
69258.95846316437
69457.29484840934
69436.2817179076
69618.90622406619
69693.90999045476
69585.73226172097
69748.14276617146
69802.87216649669
69687.58947599756
69757.72223213738
69776.59291770359
69686.00590487722
69752.45066255375
69812.08459058458
69812.85400141712
69746.77431281091
69781.27707744284
69709.216148569
69680.57160025073
69689.652103056
69682.3219799023
69637.34485062135
69592.05289750893
69555.45313626376
69637.15967303656
69672.0122472523
69728.8904526693
69728.40991093061
69656.08373449667
69670.82928262885
69764.31612296707
69756.260710873
69723.98619529024
69745.48579097065
69847.10220738009
69920.40943391857
69901.88336640506
69805.99677329599
69793.689596444
69974.35862625376
69899.7988079921
69891.18683338862
69870.46786258719
70093.4699975008
69979.39914745992
70003.73374790401
69981.65948269835
69999.38809548874
70039.5729947571
69971.36332793179
70070.69605043746
70013.86002583282
69971.18373059851
70052.93118714677
70008.20383480997
69973.89165818077
70116.75011551383
69966.84892915514
70004.41795952852
69986.05952606053
69880.76886760756
70040.75592983422
69981.72326825478
70036.1121583298
69997.98502343855
69915.47920327341
70013.45072194262
69981.34192814745
70025.27654060151
70046.51811552231
69975.33830420722
69986.98747605793
70028.27617544269
69975.74650367399
70002.38555098657
69909.02209457425
70141.87608902872
69902.2845725412
70059.43467333078
70072.1836805291
69917.278462674
69989.26057050018
69939.42360151831
69919.33199090225
69874.1377299087
69783.36361251757
69867.20181836806
69848.52148193902
69762.55149642989
69693.99658250446
69584.722813716
69549.79388344477
69425.63102870721
69439.72053826257
69249.52614107853
69219.1816601414
69134.66620229176
69002.37337946758
69009.16269895354
68892.4622903755
68955.65852770707
68880.57062594352
68928.07064626925
68996.17117132084
68884.85774392214
69133.52923699669
69142.34976859976
69230.21216440324
69353.70660463948
69343.51418261009
69411.46751896726
69491.54947243794
69683.95284745199
69674.34704587286
69747.71258814687
69643.84011197483
69684.45998104494
69737.59490710149
69765.1127169985
69739.14167881108
69774.04352272298
69714.44370445628
69680.06473476149
69755.60475109669
69648.81766370303
69668.67232244488
69647.90328875853
69564.64846401679
69738.77073652593
69602.17957547586
69644.95148661564
69606.41066160167
69650.26009285645
69565.10180323554
69706.82489294646
69671.19008889244
69628.81399890891
69748.58574704871
69867.41989465179
69724.04643566454
69838.63516476353
69741.17250474196
69761.74397085934
69861.84603874241
69811.55841709363
69838.09831893926
69953.09850731076
69886.20228289065
69917.15275546571
69962.71838124454
69977.25609708813
69983.32741598754
69926.2542216063
70018.38004248422
70066.43576091598
70043.02631796818
70014.49622260757
69984.90698415482
69895.6679831161
69989.10682093346
69922.92613110991
70038.6154372974
70083.01303325157
70010.24726224135
69867.82268474215
69974.29749162577
69977.82530657451
70025.83931392446
69977.7147609826
70058.87297329526
70048.66469641385
69959.57043237098
69942.72633662198
69991.58089390602
69989.20837794896
69916.77080790914
70012.82627363251
70011.73511486943
70102.8691169779
70055.05875160448
70030.43496208715
70004.09874771108
69988.84800789118
69922.5439716303
70030.93617596001
69984.05656922402
69943.0597927601
70061.994034321
70002.60638095795
69966.65441692382
70017.84066111928
69954.34169968173
70047.46895456652
69899.16570627764
69887.09158633732
69882.02227317686
69885.61138786415
69814.10538140332
69691.11229925888
69696.10132010128
69505.76942699307
69573.57074698547
69482.87826939647
69383.14341835828
69271.72359217636
69237.22313714206
69009.50800191135
69011.4727369112
68914.27905651397
69021.1693595464
68903.81641924393
68994.42453600974
68993.73545267683
69076.96017066888
68989.06680717702
69104.70687713416
69140.62791789044
69319.60698986734
69374.79693087772
69437.23807489466
69534.07986722334
69538.92381550196
69655.82442113735
69684.6339062785
69725.25512945921
69710.814028432
69718.58057818701
69792.23290451699
69779.56218008114
69791.45333942522
69710.65853980999
69729.154590534
69662.76350583315
69726.62145265006
69622.99780840252
69696.44472540719
69667.98419046288
69645.47590385837
69556.30520405377
69629.68710569417
69547.46226687335
69521.51270654259
69688.34572519377
69725.45437027067
69617.01585091665
69711.24902832332
69702.2609974949
69667.55982911919
69749.7493787035
69746.92187827222
69726.05110243228
69819.05822419173
69812.22116749425
69731.98633962194
69839.10963898408
69822.6600776155
69867.44862563633
69886.42599209594
69844.54530291758
69962.38405093562
69942.14096040087
69956.33129919523
70006.44628372506
69969.31240798044
69966.48992857669
70053.30823025992
70033.79781971459
69927.4441198912
69952.79123701467
69957.43503548931
69990.09592745175
70033.44346521591
70054.69061852145
69996.54553030267
70090.74370637292
70004.0638255826
69973.34984894612
70050.19940978021
70019.58225998109
70007.48915611458
70028.02964603738
69950.80024145822
69932.32830191181
69996.60795591104
70015.65786966578
69987.45736743718
69977.84870830327
70029.35115519153
69967.75462813546
69980.74665417922
70043.84527877571
69991.33560002057
69971.53012988374
69962.32592067009
70022.13941012013
70016.40046898236
69883.99420840411
70022.69199602875
70065.55855862948
70119.95102543395
69979.51703611472
69849.56535855368
69986.53995470233
69970.46621633228
69940.59739364276
69933.62927390276
69907.84150856006
69978.38729260072
69877.87830779933
69758.44231700344
69739.34702552205
69638.76866547726
69646.91567686632
69592.93809583015
69381.00009328195
69435.17040992629
69345.02747808369
69162.59204911644
69246.2372480881
69073.47501863421
69061.70677927112
69006.2357303626
68994.72610960387
68993.24351614338
68945.6158862066
68999.22755259347
69110.9010155203
69052.08567208187
69256.64100975485
69244.23149892633
69344.18585865118
69458.59413604248
69430.47776875392
69531.02524499201
69543.09074434408
69618.10805283596
69737.66348843789
69643.90805416138
69689.40967047989
69693.60249266835
69738.35909004159
69751.44743614674
69688.91481157987
69723.47087245101
69691.82046575315
69748.970903183
69682.90067126139
69672.44680521317
69603.81605528432
69652.77011383555
69632.23925967129
69615.74306535348
69682.61643549638
69634.04337217603
69590.12943598858
69611.73386055784
69651.41700384865
69665.22367418895
69781.33807359984
69729.66751474122
69766.82337991828
69768.69105741702
69845.50266398957
69761.55127130734
69850.75990164462
69858.82629475609
69833.66363633485
69927.39293019289
69863.110811699
69861.5542264824
69887.16843534075
69908.17533113745
69934.79101369994
69936.29266005867
70041.2661813146
69953.52180099572
69944.05296143133
69923.16897666409
69906.62251126417
69974.49736005165
70061.83350038677
70017.1432738315
70100.68410615578
70035.13235911391
69999.40502812916
69920.64109360256
70017.88408499713
70047.27550951063
70013.92546427659
70050.72246136994
70013.79398504026
69967.40708074693
70013.10727818416
69984.08049032152
70018.36740706225
69853.43721661858
69963.92162415951
70022.93396375878
69969.03121497903
70033.32974344467
70003.78637798106
70036.50096768391
69979.74318687167
69983.68315818984
70018.79169658356
69971.057630821
69935.48506787566
69944.03244586263
70037.24335758734
70041.79617910029
69988.7244360319
70119.38983094617
69942.78132171012
69953.30020004977
70007.34829887748
70008.64755597066
69986.52426467647
69913.90310226148
69919.49299144193
69949.21232022534
69910.27151803463
69812.18101796598
69818.58757497344
69899.89750785004
69689.25637362807
69653.00119906096
69583.70658239433
69621.73735696037
69448.15696716704
69429.61695983034
69285.91049484845
69244.81172971675
69080.72347871478
69026.80118078637
68993.76720294273
68910.92859147493
68945.70640951667
68965.6661172902
68933.13703154246
69026.56217828942
69013.89793316365
69033.71959568937
69105.33612645662
69242.80938714603
69334.0174082117
69382.50920450185
69544.22561276337
69502.09381885461
69584.54840713539
69620.79293354473
69649.45079116477
69733.93888856041
69771.35636378998
69687.86821052633
69861.44833010095
69743.0578011012
69846.13108304786
69749.5691514893
69728.37271345264
69758.83004498975
69692.2063563444
69710.07233983972
69698.83944773492
69646.11658454916
69646.09000726721
69630.0111545282
69655.75385382237
69642.498258947
69606.35592112897
69642.9525254435
69596.58884418443
69673.36453175772
69649.33407403987
69763.64636684253
69743.27136249088
69732.81696596154
69728.21994480735
69744.37387321838
69801.27940855594
69887.47166589048
69854.36162759073
69927.01469070556
69860.21556208436
69853.48552774008
69903.38169956021
69928.24792576677
69995.03884202325
69964.63881657238
69955.33412520244
70035.4473200888
69957.51860476288
69990.7933651865
70035.99073005607
69934.19736427077
70007.24980092648
70016.85247301868
70034.21176765258
69961.51281984398
69841.41344437089
69980.55429748986
69937.09607876815
70004.02925643802
70079.05624611501
70056.71324447142
69989.86942765935
69944.25756208038
70008.83663046172
69970.77311857336
70083.69306389823
70109.40632826119
69957.76007576085
70028.51073110587
70043.37600517395
69929.01995497187
70008.85060752559
70001.02323818175
69948.92304127061
70029.94166462407
69934.40982495846
69965.68254526095
69884.64006756226
69980.92501006136
70065.00698664942
69926.04452640908
70008.626030169
69895.6143303516
70006.20444220463
69867.1436095068
69910.6231237955
69898.4208248444
69817.89530177588
69823.0423967259
69701.79860859361
69824.95818209795
69641.46691280552
69525.15433900573
69519.54577906743
69396.60245580981
69265.14110440951
69156.6316754747
69204.15096327869
69111.76243676645
69042.37213946313
68948.36751750053
68933.17167474513
68983.40666055141
68972.73431958325
69020.5330668129
68913.04339371085
69115.1370009588
69316.17122390702
69250.1342700309
69281.30765278249
69370.12712530133
69500.5902249838
69419.85386281624
69556.80851896176
69664.25433373323
69735.61825900823
69806.93248960076
69843.73636803192
69705.29731906317
69715.16578926088
69833.0430092783
69836.85422525169
69791.52038166004
69766.73201710932
69638.69445047229
69698.58728232072
69682.47136619578
69669.78822332055
69591.58849416337
69592.29305793834
69646.31574931047
69622.53111116536
69615.6289562168
69631.32299522319
69624.41506348972
69652.56320368471
69732.455762712
69719.1797426229
69701.19670141442
69726.4667777473
69773.32228147674
69687.74679504133
69810.93264661136
69783.31330320376
69763.33409123315
69760.4270829156
69956.99107077236
69924.73249213063
69920.50728435678
69882.5276405769
69954.42455084944
69905.08169776235
69915.06887071182
70008.124489711
70017.95718819885
69964.17727423536
69968.98886480309
70005.71695433915
69976.48402571098
69928.93757945871
69964.41897228711
70062.3419022248
69945.81968285902
69964.35841342068
69994.52731083303
70042.372882418
69960.2171713319
70002.19331254196
70067.91083143084
69997.54812167882
69999.51537685742
70026.84340578399
69921.71979535252
70016.710621506
69960.94352072966
69945.18785957438
70002.52831347252
69985.78740403087
69917.02940916491
69985.72604146044
70081.56817872307
70008.57803452101
69861.59722923956
69968.95753541928
70051.08292772147
69958.21943430904
70053.53888945022
70039.20784844589
69992.5437436423
70080.92768123369
70053.75424347994
70020.03883063469
70004.36359543989
69998.99418377987
69998.95497206382
70059.4922017073
70010.48536580033
69947.87208810625
69948.79710284165
69950.42255504595
69844.80607243796
69843.26442117817
69880.13978935791
69706.01545463028
69671.00237917114
69636.39830894767
69599.40297154721
69450.2168615167
69454.0527040196
69247.44026085656
69213.01173910653
69213.35497919985
69100.88767052919
69058.3460448727
69013.03675411492
68942.68436420795
69027.96071557948
68976.59789575741
69010.31175246014
69058.90984841723
69094.81145381357
69290.3053555374
69309.35037175825
69260.42437638607
69435.23851915979
69476.48542391707
69551.36382191064
69575.42261590812
69562.20301202276
69760.12303305721
69701.14942815673
69771.54199715715
69802.82978416762
69721.59018939534
69702.1359111279
69724.3418234458
69656.61907710873
69690.7429475979
69798.2454015335
69743.19237381648
69707.93870326926
69722.33672546809
69592.08019035173
69624.69311424058
69722.85116423691
69652.14863351196
69666.54576813006
69651.46203952492
69536.14092965354
69533.46963333411
69609.11964129194
69697.35785990542
69675.3627712224
69731.22722971259
69680.12109315848
69726.55066405525
69779.72591053793
69814.40222814203
69766.78079132165
69875.07205160268
69736.50853362214
69905.6676192392
69830.24414582795
69898.50577897872
69995.05941617102
69982.21081686282
70001.60548101531
69948.51871739328
70013.16202918041
69897.74736247712
70021.1019100036
69976.47321373224
69985.09891804447
70039.73548180291
70034.476964916
70034.05367939855
69996.26096301909
70034.94311745431
70077.65581512141
69993.9507112751
70058.05933544639
70053.48119878778
70092.73434899873
70072.264957782
70065.44194947484
70027.52771180151
69962.9113584947
70048.53707134067
70155.70488367646
69946.9306519289
70016.60237667589
69910.11177199785
69905.56183058606
70001.3072025167
70034.11550929495
69979.82511979737
69984.85072224395
69903.57047681182
70000.54036148879
70045.61938820136
69955.8837894756
70063.45108751813
69987.07961332258
69964.63061866161
70042.55423371744
69989.25563872242
69947.23609911553
69930.17276858048
69983.45470314132
69886.95100242105
70027.70929827495
69899.02120490297
69919.7921212477
70031.42513353164
69912.19862410842
69873.30475385713
69959.31173767067
69831.99330105078
69780.9895190205
69664.79249767742
69622.56149085007
69623.7087085958
69621.94019613335
69481.89510670943
69347.83643371204
69275.40453694799
69145.68673553731
69158.33666730791
69002.08318976959
68974.98713150455
69027.69229085073
68976.98951297264
68945.3335925239
69024.65945464831
69152.27487498165
69020.60010574685
69131.55155699237
69283.09928902815
69266.74975008512
69347.75212462762
69432.3130713185
69541.60038557331
69614.75125356368
69633.59229476533
69610.84857681488
69676.9754239321
69706.23059968495
69706.9428920548
69711.71573039104
69719.55216410881
69680.27338101962
69735.4749319038
69694.72581742852
69649.82141904664
69658.10401636353
69582.2484241885
69584.30896914672
69539.31688601332
69692.15047937453
69621.12092548143
69685.51829918449
69589.0547833181
69666.25116212605
69695.63017285091
69645.81732196826
69655.47816186004
69719.45074243171
69751.00281602197
69785.62342318888
69756.54555537218
69792.82713147688
69817.86033129625
69775.89960804726
69799.90860493794
69822.38243777247
69876.4472272181
69938.80527250661
69950.49317079775
69984.48895479912
69945.63940958539
70003.88845694464
69924.60808896663
69960.11176599795
69929.1537588247
69975.93129432296
70032.42943108693
70009.15842451606
69930.55743686532
69977.94252477246
69992.04031652962
70075.39244233098
70001.13127830859
70035.58796763748
70071.28804459686
69995.53637429347
69939.63222923886
69947.25932426994
70114.92489671842
70006.14795084587
70013.34280149419
69933.84699660708
69887.38244192282
70011.91386962387
70002.68267137218
69973.58160902707
70002.97144258996
69943.75358080199
69929.48128799863
69920.42442512784
69948.26499986817
69972.40424812077
70091.1548851864
70009.16240987447
69955.76315709532
70066.19293537455
70038.78378956323
69925.19714440654
69985.60122195873
69953.10839619047
69943.3375893589
70072.73180058735
70005.36734380879
70036.37205092862
69948.51554904979
70031.11275941241
69980.65906024183
70049.91178885315
69936.0827679454
69932.403478195
70060.31540313913
70050.13395326272
69887.52355840062
69897.71421733522
70002.20183171889
69809.04724331274
69731.95945342079
69792.79785581068
69538.09959268407
69599.71901733133
69481.59772658844
69382.51809393111
69314.3335781451
69191.63649891662
69140.91533014736
69131.99974879152
69087.54317524865
68949.35570825163
68853.1577235729
68996.19972228512
69038.9596325219
69096.07066897242
69053.88152398073
69078.43143912716
69113.44799057595
69198.05039528916
69343.2828435931
69443.85454280728
69362.46319189107
69465.90029297363
69604.29424541391
69632.80454592229
69671.80809770498
69826.19550545895
69760.42233192337
69690.51965334642
69717.53664752773
69733.48093661842
69799.90305366174
69748.24018233099
69792.32664834148
69641.75789981036
69837.5006655007
69623.37909169812
69634.41279655993
69669.62764383096
69657.5300299279
69700.66995632587
69606.82934712758
69594.67536544484
69630.33708110263
69683.36408429127
69558.38942967911
69706.0593715214
69676.45769296207
69709.39094048979
69684.92391531948
69721.27800855893
69767.18855446337
69847.07907697953
69779.60766642726
69834.50193862639
69822.27534196961
69930.92279778575
69848.67124523358
69825.56689138897
69888.21730115247
69956.42309659737
69920.12285835046
69881.78362078819
69951.29902062006
69975.88120190866
69982.63794094828
70017.64756726366
69953.39271657489
70022.01892897573
69979.3304748764
70051.86070566725
70010.77357411351
69950.99669639362
70062.67563685626
69981.42272338163
69991.43060604586
70093.04433648862
69964.0986396077
69968.39275997295
69936.01460635383
69996.28396717935
70009.56299827523
69929.85993810049
70093.37522975601
70085.03189229341
70059.8758988409
69977.5533457872
70061.2634048552
69980.88098687153
69980.8454733472
69975.00108858239
69951.27429219567
70077.25920189785
70070.16902925244
70078.28305105814
69990.45833980583
70055.35532638595
70038.0344912777
70011.54779983714
69940.35428779836
70004.337018038
70073.54836023395
69942.7148543695
70075.8428689099
69968.39217376948
69971.44364976707
69935.63322815731
69873.03677552004
69993.94252691235
69820.96680557162
69876.7540718415
69658.01833951956
69804.20000339755
69702.97502657252
69677.04807420695
69471.98779851524
69474.27043683764
69377.57017912304
69309.6389477484
69263.52555649812
69107.68996875438
69066.4045528726
69047.04771347418
68969.22601327166
69001.5955697786
68975.40962030608
68876.31288852496
68984.38541708713
69014.56155750681
69060.36334548902
69235.84330939893
69121.47289064394
69328.29449978263
69476.64207123527
69475.00998901704
69470.69339272
69639.58111084366
69698.58485427927
69649.03806894299
69791.0479886847
69780.98807537429
69803.80552373755
69745.56816561236
69680.45156804177
69745.02301458086
69743.51670664904
69785.0113231893
69727.5586898829
69731.12830928652
69672.42686374018
69649.56461592199
69604.2090331893
69763.53678732394
69645.68875742075
69575.98791434533
69601.30983669702
69652.95266838542
69563.07786925267
69627.47994184082
69569.04441980427
69675.66528707024
69746.52124125679
69708.98783066423
69680.94583434075
69646.65660875825
69742.4518892838
69737.28345686615
69727.62333031384
69828.09514351866
69854.49040569276
69871.2405253859
69865.42898723354
70031.0176238668
69940.93079001088
69953.49140182862
69921.95910095339
69941.4575494741
69941.55500376156
70029.53235670038
70006.62978599728
69931.67534377387
69923.85520187177
70008.39908944079
69971.64549090201
69948.63082874786
70033.37631218592
70048.03477176752
70007.51337473733
70128.40253622828
69928.59622092302
69975.05068931631
70058.45483942251
70013.00049631098
70022.5894647187
70077.09616899518
70049.02391981476
70045.18172347278
69890.2333182151
70038.13754899977
70037.08149542971
69932.51165072592
70003.56462135335
70005.45733347995
69984.56449014423
69902.87437828857
69994.28256670723
70039.36884592916
70047.36650919459
69967.6941098008
69929.26161219942
69968.17648780937
69977.32096290651
69976.73727031921
69934.47019245544
69914.83473118469
69993.69157596849
70059.04587177727
70008.35799995584
70036.53749633757
69989.49564513554
70021.76619543006
70044.99640613541
70020.90671242157
69984.75350324309
69947.7110559913
69851.71216044658
69876.10104383698
69870.59603739053
69799.44153860735
69672.12214723015
69613.13022443859
69464.38009156269
69500.11231789186
69444.01047869847
69297.71443624081
69255.38265620529
69134.24894344652
69026.61856610497
68983.65577939007
68975.90057154915
69027.38495790656
68948.93179012764
68900.84681800181
69014.65746561924
69045.66723516282
69137.98452506572
69074.62772399872
69135.39096087843
69312.66972483185
69508.34695142618
69528.43699240495
69554.62164196486
69690.7418365278
69563.71347045655
69716.82803213949
69695.57514500628
69732.05500346572
69775.00662106254
69779.87088871765
69815.23084990047
69720.8378092668
69666.59027053758
69709.04640458674
69606.09528552028
69773.43425850447
69625.60661294073
69657.41883896131
69648.68679264633
69695.56260574354
69628.06813948472
69703.96244763114
69639.16490727068
69653.8040602492
69683.75645890797
69547.95966560059
69698.29546925721
69664.96045531819
69631.59993178214
69733.93517834754
69681.7958779783
69705.28366119722
69767.33182402392
69749.41612077186
69785.00154106322
69896.53563975067
69832.04730993448
69939.8114134206
69926.316463374
69872.54324558587
69939.70977441911
69968.42933006582
69898.16797059737
70008.5402131546
70080.58065384276
69871.37796732986
69956.39529517296
70057.941563426
69991.52056101219
69965.36640022909
70033.32334458065
69949.5205542661
70072.27199162087
70019.86936094612
69986.41702651611
69959.04067588627
69871.64986741768
69977.11978316176
69917.32352182236
70056.55623164556
70015.72860390735
69940.74423379183
69961.26350100548
70048.93272695498
70038.98961292607
69929.99413471816
69977.05887698819
70043.9747872273
69954.30617850917
70064.25334181944
70007.72094397614
69916.79760994663
70083.59822241863
70018.24822759323
69927.42152932112
70047.02823436986
69987.86142858898
69942.5078997635
70017.65900643538
69963.26739286198
69973.40261815254
70029.43204412598
69997.04075688747
69982.43101965217
69994.67624405284
69954.51372533644
69938.46619130725
69874.33852717059
69948.4893264243
69828.05020696064
69805.2375355749
69711.17552825886
69695.04040833327
69681.59229084039
69518.18527657901
69470.28834017528
69408.22189470021
69315.77746877934
69151.60180648231
69169.21064956232
69083.28267511682
69075.69202500343
68949.86597409747
68937.31468947817
69030.12905080328
68938.87482369538
69043.28099247391
69043.4712827609
69154.1375956192
69159.86909619399
69265.7083562295
69328.15813698423
69349.9706731856
69478.68786236484
69454.92455533813
69721.66032117067
69595.88943299647
69678.27912356905
69771.7641885877
69758.2584865379
69777.68568433724
69839.55344258479
69779.3978383852
69799.04392540659
69774.50561217153
69723.00036683113
69637.47604639755
69676.05060326551
69665.66365098706
69682.30618776935
69653.81627563115
69680.50817004599
69609.02932079384
69659.42601632357
69621.0996795002
69650.1864525764
69777.00109700179
69631.82738796882
69734.3286848468
69661.0838617624
69770.63786891656
69764.97449157559
69707.7253653951
69793.33338398697
69785.97314610906
69813.04083835067
69872.35426392326
69802.25201921533
69847.102808354
69896.7399218899
69944.47686070327
69924.5383800493
69929.2967832012
69939.22454498794
69898.85095254864
69990.96320936788
69999.32151008722
69923.99401330204
69964.31610279517
70051.89134790013
70020.89802734135
70039.19936118084
70043.91243797957
69991.47921605707
70106.98134161925
70109.61770503719
70000.35406629334
70028.85888983075
69959.37926209168
70011.0704958683
70048.32893003205
70055.66548995698
70059.73193796283
69973.87035601118
70040.20980642908
69957.44488955941
70107.3444235532
69990.12568537843
69967.79321816697
70031.69492836753
70102.65606202668
69961.49161347898
70073.22505623779
70083.33355750928
69943.30961097626
70008.58172944769
69922.51348659978
69914.80948730756
69939.19408356881
70035.39324671979
70013.15397527118
69991.04654159432
69976.42439160407
70009.46220233256
70070.04977873832
69975.06573551227
69984.194923818
69975.1384543888
70067.9715336638
69951.39526315
70005.6841196945
69926.40475391585
70054.3361500649
69852.42502192043
69898.11355728612
69919.62469081284
69842.76632634134
69816.45124855312
69740.07094797745
69857.23560446329
69643.5738563124
69608.89726482201
69455.04813449559
69415.32158808332
69274.57782382533
69221.32154397813
69072.57780921803
69013.02873510978
68929.32489272956
68960.77519960603
68910.02701391658
68993.9601853565
68939.41275729987
68915.2912678971
69042.59799621819
69064.55107733492
69146.72774209271
69266.88971046655
69296.81533784077
69405.51901446731
69587.11562345922
69595.49587120324
69643.47011607944
69652.92167109945
69618.4794872401
69696.31648049991
69656.43226543666
69817.4908108094
69814.67284298856
69762.58365343777
69736.91573265771
69793.3343280804
69796.77242518142
69732.6845135903
69799.0368826804
69592.64414981789
69690.80700495234
69624.6391944138
69534.24144288151
69552.2866949522
69756.15716342232
69602.36513330472
69632.69453704
69654.02069940743
69691.62259379803
69620.33552836107
69809.89442545014
69724.90810132645
69681.24870490382
69717.02509415243
69779.94932789428
69772.52479543403
69803.23402412585
69680.74480374636
69848.78458072408
69841.72823647597
69899.43128144165
70022.52211162797
69928.81224516915
69888.61654490187
69983.99410997088
69938.50386000097
69911.69866410934
69998.04477297793
70020.2932479758
69892.1172753631
69941.33193222192
70025.05325649276
70046.15610812028
69996.59968860677
69972.24320213887
70032.1157348428
70028.12044092613
69811.80166186667
69993.62515912595
69991.08740966585
69873.87544581653
69893.6946337476
69951.03901360865
70113.48225107315
70055.50081281082
70061.87388485999
69981.29566394641
70027.19687191522
69940.86743626716
69955.29796092851
70052.98563590314
69976.55067085696
70063.64707132803
70082.8405157904
69980.20993970748
69935.20110292615
70009.91800154367
69970.08866524545
69982.47066092354
70061.58914064139
69951.8217402834
69993.5540731458
69965.65602832106
70065.71688930916
70063.84096210639
70054.1531191428
69931.89451278743
69967.68924655269
70030.58849713727
69962.67895147995
69965.2250622368
69998.55443357056
69963.61345177084
69962.65589671099
69901.04189541227
70025.240872031
69976.04587691311
69932.11450062429
69843.7741962745
69930.01334703354
69797.49313182732
69820.77528458598
69696.59561936125
69714.45214016143
69539.45815610516
69534.05476437484
69421.0581196256
69317.13816167961
69305.19695118984
69145.72481708805
68999.75808903472
69036.81323165263
69017.15073721182
68878.46668504665
68828.2395845592
68963.56408444484
68967.73306522942
68993.28911804824
69127.89955591659
69161.72115932693
69151.83348794252
69315.58275317027
69347.58551072748
69456.88174835742
69622.07896083177
69607.1010356189
69725.36400043473
69683.03534529706
69731.01848454472
69747.07722438144
69788.55984929393
69704.7588420319
69707.52646670591
69759.40328265769
69784.2421676883
69738.94881374166
69820.8047621468
69767.27922806315
69778.69289382009
69640.124794013
69689.88484653307
69646.69102743253
69609.0091078751
69609.24310538163
69661.09137754318
69723.57307005407
69617.77864560093
69646.04798220018
69578.69676080388
69646.7249379125
69579.09285932328
69755.05403464087
69778.48175469953
69791.07747349476
69851.68920831988
69811.39651218742
69831.0769400902
69834.50423010117
69927.6339019299
69863.06151767023
69898.22424845622
70016.0566742305
69925.6397629058
69863.2042222887
69921.93733428614
69985.41847598826
69965.76194905443
69913.67783802244
69958.86874173775
70018.639622629
69946.85366141936
69981.48652624819
69899.47836021248
69980.38998645513
69902.33735060158
69941.92637475667
69976.52560052775
70076.9522437037
69945.35242799531
69936.881578344
69950.76011541173
69947.7978491141
69937.60967408307
69965.6035241578
70064.95468037894
69982.54805022871
70096.69009930395
69989.15916696316
70041.873990783
69876.21057672951
70010.40457750448
70014.73206525722
69988.55383057384
70031.79600750328
69956.71236452725
70034.85618615084
69980.99809436405
69990.38403517194
69926.33234801471
70042.84052853945
69940.67832644688
70044.00306003819
69932.61700090661
70054.32350014988
69980.00056740467
69954.96537547925
70028.15330098974
70012.63948874663
69979.50118818683
69992.4133852627
69788.30083272711
69805.75715943037
69854.15072166787
69728.71258546373
69730.44463476188
69711.21223883698
69628.86587842337
69636.48577196061
69512.59038087082
69466.1677003955
69296.62318202926
69293.6026077637
69175.83723144428
69052.47858504602
68936.55760217065
68928.30894529518
68884.10421411661
68999.44214462803
68883.37676996177
69005.95082139174
69013.80937435661
69020.97080440729
69142.57373338926
69241.09277976806
69280.52064522252
69351.99945516982
69488.69152612894
69453.47252180848
69587.31631604908
69643.83564071244
69712.40130013278
69758.80174315225
69704.22990605142
69750.23601627199
69805.79356457721
69743.50881806441
69777.01800787677
69884.97912509515
69755.47940434322
69762.41121149511
69692.85467751152
69691.8226081732
69666.60201834222
69639.47704869433
69567.76549353384
69568.5179741179
69642.65857518064
69630.28399877048
69708.83219417554
69715.27604697116
69655.27486602901
69571.9551295968
69770.96592066743
69617.65077678325
69738.67732237277
69689.3868695897
69758.63087179525
69726.58887562099
69878.45724822201
69709.34375890785
69879.94787174714
69916.12208004543
69788.3298180457
69931.7675941472
69951.18930209782
69943.06896860676
69951.65640035305
69944.82735232072
69893.5062450429
70066.66267596079
70036.56726376794
70039.44063415988
69959.97383710711
70050.07307530036
69923.07029122135
69968.69523564732
70042.16852879661
69976.90647384843
69973.69412134025
69998.74440089597
69980.80557171018
69989.46335998489
69959.19450233772
70027.46574561563
69938.77144853263
69998.52370365447
69942.19715239224
69901.65217336055
70030.06441853655
70038.7551727772
70023.30290793996
69968.5451262143
70041.53961227834
70030.79925035953
70055.93021235669
70055.57535219872
69961.09601098762
69994.20787180465
70027.25365995476
70003.21786232767
69965.96456524888
70034.82907800707
70082.8231776972
69918.88321351161
69996.51888050247
69978.3301741302
69981.04223585746
70051.8657904588
69910.1511860971
70030.97448635513
69867.58006129271
69876.85768141772
69771.9456569118
69745.70655194983
69661.06750578647
69737.4986955073
69595.70382285317
69475.13457124717
69369.05876522607
69286.12287279939
69218.70801627691
69091.0715680811
69091.30592021914
68967.30925218944
68914.5577311855
68966.65316788065
68996.98342493823
68935.52360126036
68952.95481126539
69050.98615021509
69057.80853727812
69150.64017453173
69142.66084513061
69231.94565041315
69371.65061475581
69399.9250183857
69484.95617605267
69576.85637868081
69613.25376946731
69747.91276026909
69664.79347534769
69733.1172708236
69773.44837379259
69792.11379789124
69728.40042162231
69758.43010754982
69787.30649312728
69768.74015669806
69739.9707479631
69702.36854049991
69752.81206169132
69629.7159340295
69644.76076331492
69681.61496662063
69730.05449349905
69730.39171370701
69673.44507055306
69600.80679870682
69710.92076586862
69626.19766722937
69636.65967528665
69667.13240757782
69658.75822222613
69715.0170595803
69745.42142946112
69786.50576576698
69794.49238927038
69788.12704540559
69822.5147910881
69787.42047092646
69877.01604968736
69842.94152047216
69880.23548782484
69887.44176064903
69933.05419821956
69950.30108440998
69936.51619444082
70057.33598179533
69887.84519887024
69997.34521225376
70005.19938899543
69947.53742005693
69946.28959182129
69939.82096827857
69926.73123313955
69947.81213070586
69940.03938091347
69917.23847901821
70155.09309215676
70013.3468585667
70099.10188378155
69986.30053508386
69934.1300878009
69984.0320775926
70010.41267821194
70045.77945145498
70047.06197304407
69966.21994853028
70008.21415548341
70030.03817095017
69956.809710715
69981.35349227779
70052.24985240128
69967.18667926198
70053.50608071347
69922.03777112397
70080.10462250668
70072.82497987687
70004.30081935762
69908.0743730057
70068.03391395973
69987.14139026652
69963.95090242598
69975.38809606212
69968.74992083306
69992.91766768685
69961.951968906
69872.89320339721
69923.29904891296
69840.66648350495
69786.1349196968
69659.15387399514
69669.46792075585
69488.48471514067
69416.18965359322
69277.80539467474
69341.57557886986
69121.034634252
69051.3396751491
69027.76433747349
69004.02916471458
68970.33002848811
69019.66706289866
68902.9648803636
68954.0918843623
68913.7901833224
69011.18465182491
69200.30345464863
69244.83539166703
69240.26525158495
69307.92413021158
69425.74048920951
69451.44715338497
69632.23927580657
69667.09171480965
69757.52300522607
69718.71128842073
69593.27670326359
69726.32891732603
69802.47561242586
69769.34862950459
69772.42014304135
69744.6560126827
69796.39034375008
69687.93123095496
69750.59099713872
69659.2280364231
69727.71244907228
69582.62186124768
69694.72960206072
69614.08656626356
69690.6638227182
69675.5233792705
69659.4596975579
69629.09635023242
69664.33377082359
69634.20036541246
69657.41270041987
69686.05193772446
69727.19046789558
69760.56559506909
69771.44540303793
69791.33791217
69821.71634021366
69823.65708254318
69831.54532288022
69912.74334822515
69943.24375801269
69786.5181041263
69900.5955346511
69899.4607048846
69823.34046132666
69981.6060763536
69936.33313912361
69827.18324482092
70003.76343456018
70045.9044791027
69950.50085324663
69874.03245985175
70008.72232259192
69938.08734728499
69921.83928743764
70038.89327877093
70020.17998835162
70020.05866393946
69946.78893926901
69963.43437651935
70051.48861600655
70004.39784456839
69947.08454682358
70067.6354803604
69929.7266701801
70001.17828145172
69919.85572765037
69928.77383462142
69914.92630233844
69982.95302448171
69978.08340023363
69999.90477447273
69991.69970785243
70029.15649385675
70096.27804391677
69918.93886258152
69986.0181201261
70051.08075410865
69983.01637473657
70005.95935046407
69944.39202582369
69893.37675022273
69968.46674386902
69899.42305346852
69880.45631229326
69867.30529802192
69972.96375698618
69933.72055946536
69844.2983295743
69737.81825934091
69786.95396838775
69741.17881722111
69578.35910890205
69581.25610897099
69382.46525387102
69251.52157206145
69244.73795085408
69182.84853683024
69057.57703343195
69039.35358174001
69009.86588754055
68930.8822914711
68975.42951026022
68940.46460949088
69015.66840842816
69068.37498996366
69044.66044089523
69180.4726998847
69230.25986999407
69248.8403487594
69421.562669349
69527.25664755556
69459.98826365826
69531.25508305224
69625.08916832219
69804.05073806389
69635.86732405296
69760.1978729704
69662.78409302482
69780.98863618626
69722.35293065292
69744.21207200462
69717.85420385802
69731.73399726406
69654.05201019405
69649.03220835119
69724.1758429488
69599.72795842474
69597.90714263955
69651.06151706423
69672.37000016736
69634.70491640057
69630.82863613906
69703.9734631784
69760.14768070722
69663.19969350981
69740.36925081688
69697.49002843317
69688.72465378766
69698.60874244921
69757.91128637624
69769.10014241729
69870.03208234168
69859.34813099889
69754.57666723075
69840.76143075517
69944.78667473767
69908.89587077577
69846.27229824946
69948.17441675092
69893.47734020643
69918.78958505379
69994.4191564272
69983.76257739961
69957.60404998482
69890.00524808429
69933.47285882087
69978.66950689758
70036.63808938295
69997.57669243467
69954.58521622258
70072.47698539373
70053.92056201062
69984.15825850089
70015.3945857685
70034.51955155635
69951.8847107084
69924.96660209383
69904.13647923918
70085.4519182087
70018.51467659908
70030.32455035837
70036.60758638658
70099.27604958095
69955.78382741917
69990.3454143325
70000.06187383374
70044.98971045055
70065.49281665609
70023.4575940432
70057.536708792
69941.60350392641
70045.79538588382
69941.61527509878
70006.71179684183
69973.76241962303
69981.02394538002
70030.53416218462
70046.551892578
69981.36821439024
69957.45390341041
70000.88491783627
70009.42906819195
69931.88482574058
69966.49055757423
70016.30865746805
69889.47276361282
69978.38001212911
69970.18554550556
69967.37786630669
69977.27732800673
69845.11672203091
69960.06045987982
69914.03879573262
69796.30351537192
69819.48046277309
69630.540116382
69755.49054085457
69615.07121906291
69489.3323358204
69473.92385043197
69418.5537785161
69345.333908414
69122.21097464049
69265.83425718713
69047.57497310717
69035.99802232483
68926.00037604966
68946.48183466069
68898.53741743318
68900.57526437099
68980.1675522775
69027.83090048171
69143.70952607466
69131.29179341109
69250.85320339493
69277.11404626978
69526.57045958831
69458.10641960222
69566.06547852464
69535.93278994107
69663.85599990832
69675.6167596637
69722.06648603047
69732.67617175097
69826.01881585148
69815.70312308702
69776.07620015308
69698.82131574559
69685.18920536329
69786.6390580093
69669.44382474099
69694.55151901538
69684.84800465869
69727.9753215386
69617.42126877666
69627.30792755945
69587.94575967929
69665.3592078545
69683.81298530645
69598.17539853769
69640.48679607171
69753.75688742918
69631.16293793697
69615.92210293985
69705.93792414396
69655.8794344531
69760.59133227752
69738.12924060535
69794.8244351932
69859.98442553589
69881.02981216107
69862.40597945215
69854.56257678162
69878.78101063725
70002.32189236837
69946.82326781657
69978.53754736779
69986.12235018187
69945.26536852765
69986.83663105898
70061.78346038313
69999.11622146427
70050.63106794436
69977.47864952183
69976.5701547283
69989.20845710997
70006.90766652519
69992.47525903137
69958.35197664947
70005.2424193603
69932.88824179226
69975.73691573218
69973.90090691703
70000.51549712615
70059.36719602898
69992.06910484676
70045.47207791958
69939.22193938498
70080.22182828137
69997.6237414395
70005.6218402029
69910.99594479016
70119.18712476784
69922.99628246616
69977.4567000864
69994.83096062274
69841.22919664218
70017.74107584335
69977.16782083987
69958.48835360166
70035.16787834097
70062.67381466528
69947.59448787176
70062.09067863108
69901.87853705823
69970.33806658174
69953.90652594456
70000.11114560752
69957.3216521288
70045.16475858154
69895.8887379535
69978.78896355227
70024.51059209644
69987.82358344927
70031.53031045012
70031.68260440057
69940.18352011626
69948.80807238349
70032.19714640093
70066.74849952193
69954.73068367186
69968.37772656685
70001.36099115854
69897.44883253162
69932.46238940573
70060.33401283163
69947.03789344293
69952.1875522038
69905.72401720873
69826.28082770565
69868.00684119946
69715.82377337222
69669.54433138054
69513.8121460302
69473.09641079335
69348.31185812534
69378.16949124812
69236.84896315099
69236.58335171785
69081.5475175721
69119.24970846818
68840.75481876584
68950.60441087517
68891.785172058
68948.10393052344
68961.64453175403
69029.28118639525
69089.97230897835
69230.72405569674
69294.89152719868
69261.27288455148
69369.74818912026
69360.32032060553
69594.51439899944
69534.65023937321
69652.0922049303
69729.37966415632
69628.85733560547
69734.40526652437
69818.36303586516
69811.98992923436
69832.30361164591
69770.83766305723
69738.94677557301
69761.8993484782
69691.47830287156
69645.18784638112
69755.55003730232
69647.87154029195
69695.39834072342
69616.06590836932
69621.97841422055
69640.20022533415
69616.34602424696
69596.49271360307
69582.565849026
69605.90383106263
69604.85220319995
69610.94211447428
69656.84694352887
69726.75764997296
69696.12908794562
69772.38760521961
69834.99498031332
69763.73503994326
69827.60405409556
69829.90675940485
69859.5456231473
69858.82126383243
69937.47648541415
69854.38831143267
69974.06177576499
69999.86079664218
69927.38062718163
69902.54168025844
69910.4837214309
69993.86060057333
69966.68881438926
69993.04634657232
69985.35350692131
70017.50986500786
69907.87123106515
69968.76262444234
69979.40512148733
69980.16668232385
69990.29287629438
70042.0706521885
69931.08491553226
69978.8132895317
69973.34202238945
69972.19421478653
70025.12448674807
69950.84705875015
69955.57271179934
70002.53710924207
70009.04232403409
69971.91772652377
69983.9075836977
70041.44633456982
70085.13857295351
70105.31119952108
69987.86514459598
70012.44596804782
69959.41729967526
70084.03478436648
70008.97871530124
70004.40616007947
70037.50001410024
70015.1922669215
69993.7706547763
70053.15130877009
69960.80154745006
70042.88230466223
70006.62922751046
70067.53664338734
70125.06918193953
69997.69813774248
70072.28002173468
69932.31173815053
70058.7122363394
70077.74860440544
69979.08794014475
69940.7907666734
69940.57296886816
70032.96424139816
69932.44263881381
69924.74994053466
70025.49737530293
69828.37876635847
69918.61349394888
69876.48570088632
69803.1134005827
69872.51103112091
69767.57569517898
69764.4355233225
69549.97018274601
69494.11847943765
69595.74322495594
69415.32692199275
69377.13644545284
69259.30692026699
69167.3026256809
69126.47817327976
69104.80377234546
69005.0160445426
69101.44470682896
68951.304547582
68898.57463457117
69002.10053162246
69021.40626160004
69003.35598849869
69063.8462605896
69190.02919573455
69194.39266245834
69311.8256541091
69366.7524010704
69527.9589917688
69583.87611888205
69612.72067396178
69728.02268387782
69658.32559627858
69701.2597000451
69848.21338954453
69803.96344339529
69748.62100221204
69767.2193228305
69830.76085119841
69765.56932667119
69726.00980905876
69739.08511647869
69713.7986913981
69642.64837841589
69677.8362504034
69628.39676274853
69724.96433477143
69676.44292708464
69723.13741472903
69608.74491209573
69682.33793471035
69609.92707246145
69663.13662666942
69686.828376496
69770.35086131557
69758.54955437171
69731.51305016717
69731.9975558549
69779.11266571652
69881.24654285143
69752.09770051329
69815.8338706546
69886.5532954141
69923.2479573394
69886.46653474173
69930.54598058623
69881.40409259158
69953.39988798111
70037.27063516557
69920.41682686335
69973.26574363376
69957.08415537706
69887.5784419105
69968.32980418613
70103.72475668792
70039.81560944911
69926.78733325652
70036.96808832504
70105.59274056331
69956.04928080505
69997.85571881357
70000.91649416383
69979.2144110357
70019.4486870278
70083.13750294902
70005.75901183441
69982.02712300961
69977.50966311358
70018.85868833159
69939.71193571556
69990.49973692233
70035.53583960267
70058.97799223088
69957.98654779696
69930.03759444895
69929.69648934266
69998.84372698763
70053.68827039121
70035.2246456794
69997.1660405778
69932.84047269076
69999.56647141137
70028.30933498054
70081.4116589653
69992.09256721233
69954.4701793616
69962.67361023255
69988.49733021112
69946.07463984612
70032.64558620428
70054.8192142011
70061.30434122655
70033.08266307351
69920.76584808885
69978.10015868243
69987.9424741437
70034.77645347346
69982.97622633495
69860.4387355138
69902.62866013587
69925.9939413451
69875.20046244783
69906.78524380912
69905.01540937624
69806.03324659393
69765.79572607379
69735.78084485195
69713.07592265145
69559.53847646232
69536.04992100493
69493.81302106909
69347.01828949251
69302.25615503655
69227.43944847483
69071.46920858283
69003.67428134666
68966.89476157453
69024.04097322517
68939.48947818624
68970.033689191
68965.03808768599
68911.02716600597
69085.25730315402
69130.36908481266
69239.54309728819
69305.01561077782
69349.30814385237
69501.57591753866
69514.61695082186
69529.98971646056
69528.41543600832
69647.68990971503
69692.46709829886
69766.41355982579
69797.42727629263
69692.16042699425
69833.92859925904
69751.352846744
69721.27661679062
69701.87670086468
69794.10646920837
69860.27540093531
69783.3013203544
69637.78179835551
69617.6241371476
69613.44829526325
69692.94979651614
69625.83783676242
69579.97075786981
69699.64123648094
69621.73895418667
69639.84627491487
69616.30304518492
69634.71673105925
69682.438477707
69666.96168487506
69744.99519138459
69764.46072499937
69746.90975669137
69703.33596923739
69826.35554226329
69924.15054422761
69778.6810921236
69945.94326051146
69828.2628509971
69866.54846578374
69934.7783271979
69901.6713573292
69950.56849422156
69934.40467506346
69899.96774000683
69959.83768741615
69994.62685093458
69824.5589721837
70011.35627539322
70050.9362846581
69949.70977789843
70001.65681627144
69987.86147199303
70028.78395255977
70030.86159686306
70009.11943671598
69994.16508848002
70089.60837049643
70010.72956901108
70051.95425775417
70003.60373698645
70010.49565449539
69859.86668567189
69983.50354270272
70051.01952574863
69981.80971689774
70046.00666083129
70008.4753223358
70009.54399579481
69989.61862858594
69999.25916904816
69971.5417424401
69994.29738217936
69981.5187168972
70033.51885838047
70019.08296829715
69985.5859208112
70059.97025625991
69944.27921811066
69948.32441706143
69951.54226830097
70058.49679820011
69981.99116855633
69998.95905110595
69982.9175031506
69917.4558037897
69893.54355106477
69882.34946286456
69881.15837260704
69908.67775292927
69848.06658104158
69698.4381176258
69615.72003972145
69623.71103502215
69568.90483591973
69532.60905565669
69322.47697704105
69266.54355647895
69200.75011543902
69109.44258538839
69093.1856091238
69103.4005617406
68973.17587703843
68922.97392588414
68975.76760023618
68924.50024707371
68857.7336633115
69050.10085157766
69126.37580231341
69225.70266749985
69165.3470805901
69392.00294858286
69424.10996211982
69449.02828146149
69513.56593535232
69525.82870852137
69604.17712742124
69713.47197150433
69652.90389610406
69761.20144614186
69768.35160866543
69700.09265782917
69711.49377196058
69799.30734666824
69695.89384917436
69741.68938514584
69661.19952973182
69754.11152175681
69652.59353544313
69794.58628015265
69672.63850771508
69612.26034939884
69678.41330894246
69581.9147547125
69616.71113007797
69572.84376323756
69683.73891886641
69685.8583399705
69700.24016549515
69682.65968267636
69767.24713406753
69727.19066444277
69797.6374209248
69771.12056306943
69783.52868538877
69848.35997323167
69869.14760746493
69999.71528306504
69891.52973382451
69865.35226341727
69960.06772274758
69960.78532529609
69867.56166643668
69896.00850942841
70027.95797714668
69893.08203744424
69975.98666994461
69915.46891814022
69947.79869030486
69959.57242136443
70016.782532844
69905.68761241587
70065.79572399177
70013.05050384492
70002.75370847694
70032.77736877592
70065.9898383188
70006.9478550704
70046.93818896642
69963.41146075747
69867.08660457397
70009.95493861604
70025.52943080135
69962.10922867274
69992.38295397557
69931.2459416614
69966.21512380838
70009.37980472668
69931.68631180363
70028.91662156716
70021.77187401183
70029.1486505107
70047.69456608394
70028.56115817156
69988.76516045413
69955.92777146153
70065.47773809999
69979.069540327
69968.33676185602
69974.50712641086
70063.07387357444
69916.26509571732
70049.61118748366
70009.82215403547
69995.50399136597
69954.27714893233
69957.27930654815
69926.53167981688
69964.7404171321
69880.85992137472
69826.80955377422
69785.37924748144
69765.83708744521
69698.71616834999
69666.05786279684
69515.43844296108
69456.76800539163
69368.37672154118
69321.56010227182
69162.31952053194
69136.20046938077
69129.63401508518
68983.4830364493
68897.95739681546
68940.85173060914
68986.32273599556
68908.3915398291
69095.69442728335
69013.37238656386
69111.68450456875
69176.11993357184
69194.0079386278
69270.15498031858
69337.28340907748
69523.38661832511
69583.48562964686
69629.12137877091
69602.20120091655
69710.69298570936
69755.54108549113
69763.4294140949
69802.08679748079
69760.24978289516
69702.17835164645
69731.64171652462
69780.10969575791
69691.54033400548
69745.24862368398
69741.45015027602
69592.81845422926
69677.98536953088
69680.84789507615
69656.23536765204
69569.78965867133
69630.14613908378
69667.16689140016
69680.32354482588
69654.64039037758
69632.59539059839
69672.8621923346
69751.34746229624
69676.35101728965
69629.76564682947
69791.88857500798
69698.75727536254
69810.67201460901
69872.8464298143
69828.17758141471
69914.14074557982
69835.93091259405
69902.03826059971
69815.06639155012
69878.42884834265
69957.40208769924
69934.0767965377
69882.89957923917
69971.98451177354
70058.41208730049
69948.32091996753
69936.2298990054
69979.54710108553
69996.31293265474
69920.11033158169
70018.08614987136
69914.02390650571
70051.08853549679
69923.95919647634
70026.75223075735
70108.39996084209
69889.03030142783
70070.13112462885
70009.26139259744
69986.69165748764
70042.69556126793
69970.57385579507
70025.62608648337
69957.50089485821
69975.6972980734
69958.61410613969
69930.55530930472
70066.66807200361
69994.25782764964
70018.46546581369
70061.96192388615
70021.3487080722
69968.58848388553
69902.03378616275
69977.75295811948
69948.85030160256
70071.23199790754
69915.85191571854
70058.27634807576
70020.83667026876
70092.28306396757
70031.2596993666
69946.42239259706
70052.01098753877
70025.84103594928
69916.31788682347
70022.99308504778
69980.92224286037
69992.78954823695
69999.07124825248
70029.79984419643
69976.34196053825
69881.147038963
69936.75225968838
69887.14580071808
69837.72289255033
69846.64750163288
69825.89910202145
69852.30594117843
69818.97485815205
69642.43714620186
69633.78763204382
69540.389269156
69425.08412471853
69261.10240450037
69217.78694226666
69135.99301647487
69118.86405811102
69053.06912968798
68916.4935482032
68920.64361869787
68989.2192109012
68910.78306463803
68930.61621779729
69023.7599526076
69059.46473625604
69222.96666836746
69203.72035345194
69305.57713931397
69373.43043412069
69467.61369360054
69545.74508214557
69536.61441927531
69673.32706931788
69741.54243482876
69773.29384627388
69738.204415878
69812.01912499641
69729.28911774926
69816.25407998713
69775.12395473207
69860.60035086086
69705.22956156424
69692.05816585431
69823.6811990768
69765.37161814119
69636.80515861913
69652.20608269559
69587.06794190868
69566.53065139934
69614.9459300976
69586.64672584136
69627.8333605216
69605.8969784919
69624.11326751392
69670.89448074445
69642.47842430553
69666.97301136111
69751.19779860521
69699.12706194003
69842.74401980649
69766.45161632267
69873.17621222515
69860.42393634976
69725.26573289704
69875.36581116561
69820.3395470406
69872.50557960804
69757.16768156781
70043.40512346326
69993.84425844309
69957.37862058105
69889.68569920938
70012.078001519
69876.33093658349
69911.73268787921
69992.5630104191
69983.32878603738
69913.1546356514
69986.57312780716
70074.86697171399
70113.49759076872
70059.25097565539
70009.51622626519
69960.6977735385
70005.87214545565
69988.55187975062
70071.4582317534
69960.01966376978
70035.31065950764
69963.23754037375
69981.4987923933
70007.80960738986
69986.40332264958
70028.5038771336
70035.89287860485
69890.53547230853
69966.80351140669
69909.15705384841
69976.53624003821
70043.63093035629
70003.14955733292
69986.38183782712
69998.9449188307
69985.82150782774
69924.86445575066
70007.2323864463
69999.09283194788
69998.0878458625
69968.39992631385
70018.5549038985
70005.57324837305
70096.17150461618
70018.46319965541
69955.0122654242
69913.95118049452
69937.49267175312
69929.49105346021
69936.880746067
69921.6045043286
69892.00115474738
69956.49502088937
69801.1504965695
69756.03588341652
69766.10564705457
69563.72114446302
69570.1735962444
69430.32222768712
69417.21038891768
69347.27673259233
69177.5604336657
69102.13452006502
68971.47868972256
68929.68064052
68986.6110996776
68982.20299445798
68972.74262998335
68956.11699010532
68977.04325435683
68933.37936003813
69179.16560846915
69080.49060888415
69164.4041077668
69272.09527646679
69377.90014572671
69380.1967069579
69518.12902561248
69630.2142406003
69612.94716931607
69734.6445139287
69618.91059894334
69801.22573780968
69692.0104117767
69905.96872370974
69860.99973366935
69623.63916127823
69728.43355328689
69695.22823123483
69776.2206870652
69762.89436320667
69692.72996338083
69694.01276414217
69688.93469429547
69731.86323618917
69601.51998225904
69717.2044806905
69594.66944417296
69640.70075559056
69675.40696589238
69672.50406001377
69614.74476986546
69701.50447201332
69648.2734089794
69770.60981045756
69649.13508945194
69738.06859968763
69798.35597580834
69791.06668501659
69783.3618011208
69817.78982326559
69826.66961289794
69905.96894358205
69854.17014245552
69925.53647167212
69951.51465637583
70029.50009024095
69883.13732948585
69976.58261157166
69994.1878312763
70005.7581072893
69923.18464907234
70034.83852398967
70036.95595389027
69970.57208791227
70000.24079219425
70061.77412354114
69952.89833642876
69925.53667101085
69925.72960352812
70012.52325353655
69997.75901144893
69925.42384022103
70042.67342844955
70010.69790367241
70108.2556100255
69968.12308849329
70067.96969906853
70021.77271153223
69930.37614188876
69956.2573527772
70047.82456670083
70065.6170162038
70046.14986305649
70017.26439156117
69918.04146216896
70090.68376306334
70012.04034525034
69983.75678755403
69955.17394383585
70001.81873288221
70033.83059740171
70074.95221398237
69953.75237256051
70057.71280864762
69968.12679149673
70004.82011624347
69965.35790105475
70027.35309575144
70068.09476964513
69942.2679184817
69832.96835962834
69876.18027431285
69842.94924520822
69742.90709437696
69724.71369586812
69722.03833097301
69494.80893443766
69448.10379309041
69342.21580247513
69328.49764629797
69257.31862394877
69084.83889625683
69029.00345279678
69026.35395231683
69084.33335834672
68944.54393787587
68948.74404652472
69008.4136720041
68936.9114712734
68994.72362995242
69183.93731342256
69174.79150686694
69321.46846702034
69357.60361181333
69473.13595056381
69500.92842445386
69503.10746089305
69601.69170188521
69637.75064376277
69723.05492640406
69643.02905520733
69773.74184903315
69669.37946837851
69711.05898580374
69813.98963150366
69686.00399098992
69713.92628281214
69733.81382130951
69713.28242440928
69733.64844362484
69693.66342739109
69602.47533796467
69758.24989222642
69655.08892926108
69565.63369157977
69541.9019952514
69595.28923254891
69609.13674292616
69636.57710206008
69597.36210042227
69777.97665755343
69635.29750660322
69667.09362015442
69726.02496077819
69676.3385259802
69761.44865445793
69777.99603614694
69751.32939655619
69915.77348754834
69824.71238302633
69859.85997260865
69914.98779628614
69877.47715578666
69883.78472128004
69864.47195800679
69925.14743748587
69967.88197834147
69933.7390211203
70013.75039757162
69980.64544520652
69935.93100785621
70069.32495500839
70052.49591183524
70016.88615832648
70021.63690474161
69994.5216800435
69978.08750669762
70048.91163057578
69994.87712252114
70058.0081767132
70032.13803221195
69951.36377157137
70042.33595166891
69996.79022740807
70050.37608145694
70009.79986866459
70013.95231222847
70076.38098948037
70009.64051004006
70092.39174310994
70023.2564925364
69925.320107112
69887.7315700188
69993.66744253256
69930.60694817585
69983.6031685694
69947.1744101189
70024.60430264764
69963.13441371491
70039.10021795005
70000.30076000247
69946.19890202285
69897.87437405724
69934.8736191494
69933.67218705745
70072.99651153
69990.18811103761
69831.70273461042
69949.33221131763
69970.30231439663
69996.70011935574
69967.77496038249
69767.09161906563
69787.91296992963
69779.05520838844
69633.98511488504
69600.04089550223
69482.27808835327
69450.56702593293
69412.12410582326
69237.22240681211
69130.15476713527
69110.98209373435
69128.76171309905
68938.175824181
69078.56340673438
68916.17889402901
68888.61866996503
69035.6834774874
69005.04132404484
68919.5768829229
69133.9846149822
69176.60847415659
69279.62683230691
69301.94596400557
69401.40803293175
69495.42901420948
69502.57294230997
69593.20662955569
69561.24237249995
69685.48451606951
69745.39979731485
69722.59514000925
69760.40750456166
69710.03105565932
69669.69572710079
69749.87452027785
69815.2041271786
69754.07250465032
69651.87795321531
69755.74934052861
69639.58052860851
69608.39630556559
69623.24255528706
69569.7024851025
69666.16780544103
69724.6074917431
69710.03574816557
69569.24251322319
69664.79337153403
69636.22012354666
69752.32601799098
69695.91428979968
69736.43641308138
69753.69458091997
69721.12054696045
69799.33354582588
69863.77997825817
69772.26813448814
69828.62285022071
69885.61532701328
69836.38935512096
69829.49799068969
69908.20874938065
69933.46213356651
69985.3610901096
69974.52556690208
69989.39381200005
69995.05436764595
69946.54846659151
70046.73396617312
70000.81336438032
70026.52711856412
69992.69886907407
70066.83255030727
70019.91593274582
69996.95324902984
69957.64515015339
70002.31922621638
69951.86074658767
70051.72973649729
70090.58884160103
70074.83477595384
69966.14208770826
70013.9861208792
69997.400768037
70006.14786091929
69925.0392571321
70011.36560339962
69929.14127914276
70115.09009647624
69957.26327559812
70012.58235956273
69997.99454110308
70048.08370685976
70007.24098321206
69985.273901717
70047.41227220888
69991.30557907066
69927.88208564991
69922.63654187524
69917.90791235933
69887.98528221702
69740.71997546857
69786.84614871696
69582.82915567284
69700.90269933101
69596.63009013206
69463.4997522658
69396.91430087182
69305.23645484637
69285.06074638532
69099.79632616948
69082.91490985756
68978.96808135229
68988.84643885144
68966.12501215762
68967.92116781634
69029.1449249318
69005.1382714975
69059.81337997525
69007.15031368521
69213.42312834645
69270.82057132435
69287.33873399193
69455.92839977634
69555.13890969829
69493.42356723778
69667.88505112457
69662.33057122413
69688.92414262831
69766.31996511933
69796.13117989629
69706.08755705277
69752.46475829011
69781.56259249646
69800.99208223833
69711.7550075299
69785.56383991386
69692.40238729824
69724.4641958549
69751.86951463294
69717.96234709304
69645.77890322523
69685.06726969678
69682.16870574081
69664.3203105955
69613.9217108936
69698.18561625785
69629.21332988028
69745.50814477027
69620.02040908657
69710.68029339204
69792.28009593961
69767.88285747214
69718.82849503052
69710.25985342494
69830.40482061567
69777.21378768691
69779.8255382633
69879.23496733778
69806.27093487412
69865.26648574139
69928.5737817242
69904.53348717124
69961.13434419055
69938.74308600085
69828.69071828104
70013.96857730004
69945.96529582457
70031.62899409357
70004.52905838592
69997.26417892087
70039.96581012457
69937.30235579977
70054.61492383206
70022.64580195592
69969.71294623376
70059.78253053344
70110.27670026525
70057.81508066041
70015.20768920537
69991.57820591325
70056.96012759372
69982.34670594164
69923.35757021293
70049.38751790812
69893.871290446
70060.03539092239
70031.45960716935
69964.83733366046
70021.6923818998
70017.85197049785
69992.24106073707
69914.67426959194
70071.05094325253
70033.133152446
69944.55994577664
69988.23726838698
70036.92875286723
70041.49540849289
69963.30929710611
70039.07596688942
69921.20762053395
69851.85115139751
69974.0788444952
69885.36065836382
69748.28117266226
69767.30831886499
69664.15836227433
69777.11162934094
69665.49577876095
69567.6245937348
69456.3886960168
69244.20962483711
69246.7817422415
69190.1428106738
69002.13967654719
69118.31313529614
68990.35064037892
68869.21240012694
68897.6947475082
68867.99259531648
68992.88096452778
69062.43957495426
69077.0441564137
69091.62146259895
69184.70121571182
69206.5627176372
69330.29641205423
69401.8013440691
69541.1655072115
69564.32282877626
69661.62746443436
69724.97695766207
69702.59389322982
69704.06815487765
69720.36499805312
69772.18540463572
69797.01052143825
69744.93741070433
69753.92502688165
69767.90013288728
69709.2384506028
69709.42506892122
69724.65778226579
69757.51953855007
69768.54011561979
69625.56647515438
69654.34735536046
69599.60841067343
69628.40119093648
69690.9381105016
69633.84090190407
69682.89754093735
69639.67598015227
69718.850627585
69721.1785167398
69723.76808698509
69672.28845348272
69752.71823791545
69729.21389678598
69673.51409337975
69791.05474224915
69787.44615458394
69836.00649922948
69758.44880659913
69828.19815386181
69884.3762325262
69957.56164444062
69916.09140049729
69992.98993440038
69944.8937475461
69997.3238879156
69978.25179961756
69992.3612052516
69968.52999985844
69952.09369101831
70002.24493278762
70032.40306394224
69995.56099799425
70045.52886033281
69965.82269191982
69979.43545910718
69975.58523762906
69879.8606898076
70089.81081693943
69990.25128489904
70097.15592258345
70006.67562031143
69974.48562201223
69924.48168865508
69876.16140013571
69973.54490892474
70122.81015944597
69981.85627252774
69969.67765149032
69996.58001257225
69915.58354341502
69988.36698664005
70024.48493113542
70102.7827141238
70026.47065707383
70026.27091119475
69989.24897520799
70020.40996873996
69994.40088269621
70091.24592143181
69876.42097601567
69905.28015710926
69948.09431383484
69947.6935674867
69980.17400118966
70079.30221330318
70003.87334948753
69862.96678271871
69913.4424538454
69948.22500974311
69886.9470593415
69770.75418667453
69731.09960569035
69704.6224427041
69666.73957597362
69637.41633602521
69373.56061743619
69338.4222282967
69202.69939594
69237.13349583479
69070.22741445308
69098.47419149296
69009.79089316587
68914.61031811398
68882.81400273318
68868.9367374224
69024.58476644961
68948.69292981381
69075.28502460543
69098.64827624657
69155.59233489573
69294.27578283049
69328.8430344494
69312.14732875804
69435.18988976833
69571.38804819238
69590.61621791213
69613.92819659645
69635.96620571316
69737.3912679366
69734.25697806581
69750.0274613618
69730.1787527469
69741.89240397888
69714.80536157891
69736.34681199216
69735.81949228891
69614.49179695797
69707.41699513319
69717.84538101564
69507.46650394227
69659.19274342226
69682.89792670478
69613.1324302614
69617.41275830742
69713.70974145572
69644.60758510625
69675.45804438963
69583.49843452513
69674.5653591677
69704.20028881593
69755.74555796644
69763.88165289447
69833.86363965692
69698.87621085532
69709.93256976733
69688.91988715902
69922.52189459032
69822.97972373533
70059.6150559263
69797.75641205756
69919.77391772084
69868.89596373527
69992.87161417134
69917.17875721921
69972.54170904064
69959.72301519905
69957.74957218302
70001.11208036226
69982.00669885863
69970.07887177958
70000.04550931577
69993.89225307194
69963.69846641987
69927.77286841298
69896.65350297735
70056.41198162021
69952.84408249967
69977.01263370732
69940.42249914639
69961.29843592455
69988.44762412108
70042.7142500523
69974.57762098908
69946.75667468678
70070.33601398394
69950.37242967551
70050.28018271508
70123.12315672624
70119.88420975982
70022.78964416723
69997.44655032652
70061.36475425173
69950.71025590693
69968.20699812457
69984.75032625099
69968.47430206073
70034.34041208371
69961.81461655015
69950.49342278502
70018.67811667314
69971.92752990393
69981.19563523498
69901.48143710924
70001.10229736414
69872.30390136428
69969.89602700343
69815.6588588167
69806.90365496202
69844.0134574399
69691.46012120334
69581.09979717883
69634.12313682784
69518.79427717355
69438.44523122745
69375.44725015013
69161.57024642362
69037.83415991851
69136.48795812263
69047.86296362079
69039.41994374015
69061.0446542363
68938.17580908039
68933.09743212163
69113.80728640089
69034.8050188108
69087.57289415738
69108.12979592045
69259.74126699238
69260.42514536619
69340.50615320631
69467.59344665856
69565.47879945823
69532.52555289265
69578.11941917024
69770.79700556147
69687.39159416947
69676.98217305318
69782.03178888261
69782.51907328746
69808.63039271974
69746.43511179124
69764.40554043041
69713.16111786984
69746.9915060477
69661.10582688615
69730.54090676409
69653.85296971278
69706.49865093656
69670.24147908467
69621.68748554592
69609.52747736231
69689.07695036307
69635.85095971785
69638.47103754939
69597.84874259052
69638.69386381346
69664.32097308917
69623.13921672624
69795.0812447273
69756.31186203602
69847.17381194758
69746.03153853981
69880.89950004948
69757.2958317517
69893.79120294687
69808.57914633934
69928.14542141733
69969.09114675704
69966.8878997621
69978.62602783705
69968.03053399923
70017.60911047042
69965.8562562451
70008.02777637073
70018.35687149635
70042.42859156782
69964.43818221796
69989.06260991356
69882.94080371132
69961.97536281568
69884.53674092742
69980.73975091764
69945.02815294763
70038.30040970686
70051.42557946841
70057.36448025561
69930.66080226205
69950.86996120246
70072.2986420821
69944.79288552697
70009.94308825282
69907.40427375135
70077.30376900238
69989.96639912952
69958.75897332419
69938.21797200329
69942.8912508564
69974.74170359672
70039.70443638659
69988.86079762381
70067.86276583221
69957.90147116243
69994.28879827133
70012.57975568103
69995.29247959494
69968.86786784323
69941.83583389965
69981.97862061275
69994.84164474628
70018.16831649195
69980.24983053954
69983.36975686657
70003.91149199207
69986.1297017189
70001.83800079704
69960.78327334086
69879.79243684946
70029.39154159733
69967.727397942
70028.6699193605
69872.94797389153
69903.98505795062
69928.6785462634
69941.27525218396
69961.0120313294
69846.77029801377
69856.31543470758
69735.64878156068
69729.00813452457
69766.74409304347
69648.20443184441
69568.50194523143
69512.17265013428
69406.58405293552
69422.41783633447
69306.5196013865
69185.98978157589
69043.60217812662
68956.54155980767
68994.49788542082
68893.89746895991
68927.85815769486
68892.1967818406
68956.58233128295
69077.96581468356
69032.51111526931
69167.02836687706
69240.07415281872
69087.1893853622
69443.23296288509
69436.36121404612
69481.41055861265
69553.33965946188
69550.6408478968
69708.9182939929
69755.02166637033
69878.22055332926
69783.98589019652
69772.21108271963
69729.01482101013
69734.97460633567
69746.1577002388
69751.00566142325
69756.65418883595
69740.30461700722
69714.36773953377
69644.23524504101
69621.1611321068
69657.0227433171
69631.5721820906
69568.71755104802
69660.53414018304
69629.36119239565
69669.90709129305
69629.11999998814
69676.66495379251
69780.90651952413
69674.41772300177
69691.66990178822
69739.48353512248
69762.97429208932
69783.30989335653
69745.22979886807
69907.72216983484
69778.34773677474
69782.36726188663
69886.25652774495
69867.74956279979
69971.39002895501
69923.71278686608
69919.1527130356
69998.41401950478
70054.89987287758
69961.338808648
69999.16188247483
69984.16310284789
69950.7332036916
70006.74956393948
70042.31505630631
69964.34746404627
69981.30676132692
69938.74712044446
70021.70677270653
69967.15236094042
69919.99187196555
69997.79110592822
70050.15564993746
69974.20731276719
70016.75090696746
69871.72855489916
70010.07644512698
69921.36412740189
70060.2710583705
70011.68000788981
70000.98497767406
70043.94889171435
69894.93087475121
69976.97846225653
69988.44404749862
69926.46435048536
70062.97678643474
69936.0915564519
69947.39240451135
69921.81264470954
69988.04235647495
69881.77531738853
69970.84324829548
70072.46255347645
69942.45181933536
70132.60874633862
70018.67056837682
70090.12651730713
70018.05019791113
70020.66067164122
69960.18331278379
70046.63666969168
69954.64913232271
70021.145219419
69990.9151803303
69916.78971496345
69974.13753595304
70000.54726212371
69879.99719059725
70008.041323195
69872.92968935138
69983.42634434666
69791.38592593122
69768.49453528678
69698.88318724972
69799.52678746254
69578.98639621926
69587.56149201989
69504.96859779314
69372.29923964078
69173.08389038638
69247.21252729734
69048.36303351946
68995.44811506898
68942.54702462672
69032.23092342819
68838.80027406363
68868.57557555483
68977.61108079395
68917.16009656069
68997.19324019732
69105.97991522016
69169.02383026188
69141.45580353329
69380.46558198336
69216.59273562832
69419.7741668356
69549.68708369558
69591.8175491509
69668.43632485245
69669.0515242936
69692.04725766207
69698.0664672094
69704.06681764915
69701.66916558806
69789.14858045401
69780.78336827744
69778.31011415912
69764.90999578426
69871.78142159194
69748.67879026245
69594.44017664215
69691.08637117695
69681.25092727454
69665.85344460825
69561.58983106744
69611.09657114181
69659.04302358782
69702.3622038987
69702.11595614991
69682.25647029151
69579.88200372628
69718.02503643796
69682.38094898016
69762.42446923866
69798.88503006025
69760.07066734064
69813.24740383693
69731.16045590989
69752.43844787456
69821.71637589148
69863.28684893485
69903.4861310297
69831.31513377417
70027.6810755685
69829.15589119913
70002.33016883188
69949.84149385565
70006.52131818095
69913.00169266928
70009.67708229522
70009.767037005
69980.35704663776
70112.86279848196
69997.27245259636
70052.61810858926
70072.05856239903
70057.58056928012
69997.67609836989
69930.87515997585
70014.90312320738
69907.63513424224
70058.27964519901
69939.67317481896
70030.09408227097
69927.5938538421
69955.68418182385
70039.01204129809
70037.43391897852
69929.88365762467
70032.51114619852
70041.35315663848
69979.54645090518
69995.19299386868
70060.69991182793
70115.5321053675
70027.53751646871
69952.83480534081
69932.54587764085
70001.40953863226
70012.58908535486
70059.22402838054
70001.72678792741
69986.34494979146
69961.93611322965
69981.22914982827
69997.85184948683
69992.42780906855
69958.26969730483
70024.19214998267
69985.06369951965
70030.86283867093
70018.90019033708
70022.39500267398
69974.28744945896
69974.34303467427
70002.67936583102
69941.09643644076
69911.46122747383
69886.13868849068
69812.1081621952
69751.91763832461
69681.45050840879
69641.16317886137
69594.26641719077
69489.27781416736
69363.92727373847
69307.0625578716
69268.09434239542
69168.29682353776
69046.68118872185
69131.38004056015
69010.97000534637
69008.07004821925
68958.99973368425
69031.95704573409
69031.12082707798
69048.33095210472
69102.62116695994
69258.71112118775
69150.56763752965
69290.41019281122
69386.07390619455
69416.6137124506
69512.0766799935
69527.29402831497
69601.3063913052
69724.89785172523
69729.1471791969
69697.72100558624
69880.23412962351
69744.2845904506
69766.93370974285
69899.11753160003
69700.71546235467
69729.81587172434
69737.62810703211
69725.19503072834
69637.42850205617
69698.32896000745
69600.0383615894
69644.35572655316
69567.71588386451
69642.49495776529
69648.04871223953
69679.95843987617
69753.32138931048
69658.47749249656
69597.76311306076
69717.82461144145
69635.4271512185
69649.27861852924
69746.43678075913
69734.08984449442
69780.50431413946
69756.3315280061
69862.9998320699
69819.73992458526
69834.16403304477
69801.5661732075
69826.28449785284
69909.72901622985
69900.7462697161
69953.0540446663
69904.80546483558
69979.33572821075
70021.15099003064
70064.59001724613
69951.84331264108
70041.28584462317
70036.92879447927
69955.18096297729
70015.07958125343
70018.05851954325
69965.06799454684
69981.29005365404
70010.04771712776
70041.40874886376
69990.32753392983
70028.38271918304
69990.75751672417
70004.22603529558
69938.5617883263
69978.27122658843
69959.01346094345
69956.96567982616
70139.87935624048
69978.54958558414
70017.52403629731
70060.1047401244
69913.66700334007
70074.82871921628
69976.6616360156
69984.03313726398
69954.4650251121
70039.35635594034
70037.0072604346
70030.67385627619
69992.24624148078
70019.49410026401
70050.66680178678
69981.01970610133
70073.79656194957
69945.16527237144
69900.71471688389
70084.63540065709
70031.60363934303
69932.21024836943
69951.03579978563
70038.93369206898
69991.31970594176
69962.18318908947
69960.08235611366
69930.13131106067
70007.52031079413
69810.03015377476
69954.738764986
69787.96173495488
69821.22086605907
69601.17496170175
69723.330152222
69602.29268652061
69512.62344330244
69407.7410793386
69392.04995933615
69231.70979779925
69203.44130459924
69030.58555556834
69110.81587850471
69033.51203596545
69025.54968441931
69023.51778322512
68863.55203785212
69014.96769322039
69033.20064312423
69157.77328852254
69186.17646163581
69261.01405049201
69246.22452012151
69397.59620553686
69490.46576528127
69459.662380145
69573.87071633333
69653.244241119
69690.80885932696
69826.74256631348
69648.81147882351
69807.89529902051
69725.17008133102
69805.05319385386
69677.29243678445
69709.59700996373
69673.48931402381
69689.51380824069
69752.70458380104
69712.7637524587
69741.49723054859
69706.1517653045
69688.59439687438
69694.94418147314
69629.86826302453
69548.3574275432
69779.43337453053
69588.30404351032
69630.86877537316
69614.77877450785
69652.80923619635
69653.20408269117
69602.34311250848
69800.79719628625
69695.25171297044
69768.19618765025
69812.2198241088
69856.93588171866
69818.66506814644
69847.38849854995
69835.05717471884
69874.70380474452
69931.80500178321
69883.12112316396
70022.40121012492
69980.49905847652
70094.49096519891
70030.29145721208
69873.26018736654
69966.24352199817
69927.66132539365
69908.44103604823
69917.0555770811
70003.21180196905
69990.12657569822
69938.50422472178
69941.96152723607
70061.20197964675
69969.76248255231
70002.76798044571
69992.54244767928
69961.52248540577
69995.9624804964
69981.52505227704
70013.63572100425
69996.01400093442
69977.08784206102
70056.07305334727
69988.25051956953
69902.95271336565
70017.40410668757
69978.40566402131
70009.6481316592
70034.53076458554
69964.57903424054
70052.1672050202
69950.45962153611
70074.91644334317
70067.8917806605
69954.09458097242
70000.60119718166
70014.71982993037
69988.55870407952
70062.71306663321
69947.94509803245
70038.74321832777
69928.40199387635
69930.919707055
70003.53982941441
70005.43945709814
70064.08366452708
70029.65788890912
69982.50363088908
69909.53088516992
69940.52089919428
69995.63658590408
69900.25164674887
69864.8632172189
69889.33657883185
69791.79749376747
69736.79793246556
69671.74234864058
69635.80804803179
69553.66630000013
69352.41839413748
69340.57854648767
69222.63684922364
69130.08105131936
69191.22747897015
69033.87407778174
68966.88064352435
68893.23623866805
69023.57193112378
68950.6565801783
69009.37786392923
68991.12568871457
68993.0942833765
69136.10164529034
69182.12803329981
69281.22684867666
69390.80164747448
69440.20768848188
69508.28522720445
69550.97184556388
69703.19605579095
69610.48752281281
69804.37262734245
69695.10607768089
69743.212849396
69713.55414088085
69699.16570865827
69835.55039015693
69774.20613167639
69745.42077655527
69724.83241840913
69751.5686967862
69594.93526226564
69635.44592516626
69709.73952961847
69598.31567226163
69641.21634392161
69545.59537050001
69633.29608689203
69652.50837774837
69600.88102655749
69668.35720711751
69642.35418965737
69620.88109361076
69710.68584591299
69638.49412483403
69719.4237510663
69820.24498983585
69737.69016979609
69762.44895976514
69812.62917112093
69787.60668155857
69877.72468933459
69899.40986287517
69975.23065734652
69819.36831080841
69917.40814134364
69883.76612137994
69925.45393467059
70004.00890488575
70034.98582974654
69914.8882145017
69913.56265986199
69964.54426207127
69970.5503926731
70017.90519652702
69975.15863558887
70042.31888137787
70033.49430038912
69995.0404092133
69933.89207991889
70065.05922053575
69979.99366967894
70010.84843155548
69992.94002948605
69887.85437211185
70027.42486943657
70008.36411461823
70004.92331364592
69955.23394449636
69968.07813125291
69958.03545218162
69973.04514774248
70053.97557986701
70008.75337118785
70031.64391467845
69892.8842121498
69994.19189515743
70078.12877794068
70019.70426149014
69858.29708588967
70027.12224876248
70013.54931350132
70069.78694839758
70052.42814274794
70099.1453478306
70043.11813003437
69924.48362070022
69964.55071646044
69939.43939835018
70031.8287247638
69973.6469623184
69929.09817434267
70020.50102896808
69804.15540427637
69815.15736784988
69988.58388070925
69864.95623623207
69715.706397702
69661.69366443373
69693.87378057427
69650.33155877115
69478.42718788164
69412.16145162113
69349.88972807325
69305.11217798991
69091.52518524771
69123.0470724441
68920.03765623532
68915.26357781127
68959.18708462105
68964.42061082812
68932.96865013253
69030.1809400934
68981.60864683958
69088.30305028314
69139.96532687095
69166.0242665821
69231.64047692418
69383.97790964137
69566.41215610986
69604.82229385189
69547.78735732382
69685.79084308364
69707.1064793187
69710.6684774715
69779.54111142145
69718.271522526
69771.61972334755
69788.51650551306
69671.41697181268
69746.73902264742
69706.58845260735
69785.6832474842
69651.49740770414
69683.59121986947
69719.58022305489
69627.09924968831
69617.92031945851
69667.23767462384
69658.10483375775
69653.82555222753
69516.84273482334
69627.00252133326
69552.69957543787
69617.36354471365
69673.25581969338
69679.22137233916
69714.55063510663
69818.22846944066
69718.71302714616
69812.7670778986
69792.4248956678
69899.1715426093
69797.48680183907
69846.65667644366
70000.62123390229
69969.1445515395
69861.48742420055
69949.78541367232
69834.10984502587
69956.30377354666
69896.39421488103
69967.62961199282
69899.37041854492
69945.09565380403
70011.42285266673
69988.83251227469
70003.75461161416
70054.45758038333
70077.86280781835
69928.51115716304
69963.52271760651
69924.03522106349
70015.52696682
70022.45591379153
69966.86569485704
70002.8806182786
70023.13497214927
70093.50760269718
69973.38529355278
70073.9482269367
70055.42040644254
69985.19722746988
69929.65900800483
70025.47549033491
69997.31755349244
69923.90206595846
70034.24280279824
69913.89770004177
70066.75002974505
69954.98731689907
70020.75605917664
69989.9687219296
70016.75841206715
70003.09321719165
69877.72532885223
69999.40210452711
70003.46974468895
69963.0759388882
70043.80585189965
69936.11490855241
70012.0705708549
69995.05133699624
69923.03543804881
69941.57773568245
69897.48395746411
69840.25622754286
69796.76332497777
69760.16835787677
69821.43941548628
69702.04267721511
69714.80918047979
69500.06377133825
69431.01086221034
69298.4892786272
69193.70318758601
69163.99745099901
69107.13898517506
69077.68238632599
69043.80948284619
68961.1776090352
68922.13230443813
68933.8856842691
68964.05237229812
68979.67077096191
69032.44168958269
69138.9418368348
69130.79332307784
69274.50375290721
69289.40528392186
69494.77863189939
69508.61390433453
69624.4722595999
69625.55872901661
69702.71723571832
69774.78752832458
69787.37013717435
69773.28187205415
69808.06503217624
69783.20398086544
69826.57733669707
69752.93737689202
69815.52110814897
69681.08978298497
69690.66384727143
69686.93037547282
69626.34522295924
69671.33130218215
69592.94307764155
69595.46298345977
69551.62422618765
69651.64103589924
69622.7085307141
69689.56979899008
69669.01493381718
69657.01484530394
69709.21927796649
69659.59955300267
69774.24273729046
69742.38200864833
69745.44509945075
69790.69486298668
69769.94908992572
69715.37341268582
69858.07825532026
69960.60472456059
69853.73020814832
69834.41090379682
69864.13706998815
69900.77513917649
69837.11105800538
69957.54456219792
69998.27283017573
69978.57681715832
69976.32570044721
69864.17735914384
69902.11854792794
69920.01568548962
69999.73397796499
70001.51257674083
70093.05576243655
70049.12474676543
69988.28306788845
69960.87982829408
69987.05006227431
69911.00775701746
70109.83411326144
69989.95083875334
70006.36766902656
70041.62805790923
70004.81645886046
70012.48929844856
69898.99386224122
70052.69929769349
69993.1770620204
70047.25648763125
69989.43110811591
70042.61826791863
70075.00965399544
70015.51988290777
69944.14980404069
70029.64841543288
70029.62558199983
69996.08059242915
69864.8583317505
70028.01459024409
70047.6548028171
70002.60550102167
69992.27922033626
70012.7016101933
70020.4284627147
70081.71654213782
70026.78112923232
69986.23224684435
69930.70622795491
69951.43342435495
69966.81753586062
69944.86986352452
69798.25524397354
69854.03683761721
69778.88094103671
69702.3755478859
69681.50070317429
69549.1402028409
69502.63113995407
69405.11870614007
69376.22679794357
69205.2170998057
69208.7061416668
69037.68288619076
69039.24514009166
68868.69482067814
68931.50850528771
69016.23556390645
68913.49454572014
69010.17953453877
69060.92755300882
69013.200351258
69033.05374592275
69253.44706707282
69239.68615510201
69371.65608976358
69381.07972711945
69469.60227988064
69650.03163585802
69572.04385058804
69722.136813895
69686.99784726168
69755.39393353515
69769.09671944342
69800.66471172418
69803.1237775744
69704.03290564695
69759.93849108787
69664.90003245234
69740.24899964433
69731.84978673824
69720.68996694183
69666.44737613502
69719.57020536208
69547.27637555648
69651.99401576724
69713.1905684912
69572.2489328771
69677.75657266255
69597.03644757741
69638.34907485814
69703.75256155778
69737.67923585491
69687.36201322742
69579.0551315512
69668.0220478927
69758.94490231827
69846.0187774149
69732.30697162644
69699.4379267528
69899.96934299867
69835.56833079283
69907.7765678571
69943.45634482837
69968.49142700151
69963.84375052057
69869.30710884031
69956.16849489555
69881.79009892001
70026.80056397148
69915.41147901714
69904.1615892772
69978.55619616488
69984.26700410519
69947.15912687863
70027.59464630013
70125.22717798107
69978.8360112486
70015.29540430682
70018.97676153242
70006.08885912593
70014.37827321017
70024.88311267132
69950.91905794022
70051.63077944705
69961.05041107752
70059.85079131213
69961.16350449347
69909.5590995574
70040.08806496329
70013.48148572125
69979.46639758021
69954.40302961218
69986.52241051152
69933.064758361
70044.78268720667
70017.41983922513
69978.94966319758
70089.7109137852
69961.30720028433
70051.40761872349
70012.92824841068
69938.22767270828
70041.90095607146
69956.85536759748
69955.67696653557
70082.44968582795
69987.32796240377
69894.53070173977
69832.45959859992
69914.4476565289
69930.21405614592
69978.23324332995
69772.30301166023
69775.44275432487
69600.56552977038
69678.0777410636
69600.63690971847
69473.74412368846
69501.33130082485
69379.62017760823
69200.07714729848
69165.13087471106
69046.75189709853
69112.38050624517
69012.08429090999
68979.77683088763
68918.12103341562
68970.20500519154
69018.78125483249
69051.88027620454
69054.35261201907
69042.99745058651
69216.13119786666
69376.37497147058
69388.77616693561
69414.8521056704
69488.05272907087
69595.18408726301
69584.14755000816
69713.67207804121
69679.35725705168
69787.9197894812
69666.55964991088
69775.1233151175
69734.77343152845
69775.72761226328
69744.34458144948
69722.41311019879
69758.17338178518
69650.76162272968
69691.0434541032
69632.51585135027
69657.34369364852
69681.74702591677
69533.20345605111
69617.14117756225
69600.2913451996
69610.70663743155
69659.08860573573
69682.52902102363
69622.74722927292
69663.49907540256
69639.02341602425
69702.86984659453
69716.33467388913
69769.60275741559
69730.2098334244
69811.68728598795
69850.66590197993
69890.99840273541
69863.8967255307
69916.99650403288
69926.49424595023
69943.7282600639
69881.4677906465
69954.83134898313
69934.821770341
69954.47106197414
70047.83946637803
69914.91277872845
70044.76470595117
70067.05746579809
70045.55530451972
70016.91916123084
70030.82315322534
69985.10007935806
69933.69353068554
69966.05565883039
69890.72030913817
69998.64736975773
70004.2284763902
70013.56895168677
70002.17351947671
69978.46465136293
69910.28566168084
70005.60381910292
69986.60353736221
69992.51754713566
69922.90089321756
70017.65472527237
69922.60361507794
70075.46789201345
69975.961467942
69958.67305831432
69877.61010184545
69988.38273841333
69988.06247782659
70067.07251853393
70023.90852277791
70053.12475068416
69983.04943677464
69931.2326358829
70016.68681544792
70080.06853041491
69976.56983634563
69980.78652158978
70044.16763219802
69947.80734639027
69914.76123192882
69886.2341993082
69823.32407762915
69789.97345308009
69818.7546668657
69722.41393303835
69654.42284796371
69638.00309045683
69628.84876407968
69395.06610547256
69429.65799989429
69276.710940126
69235.82681628849
69145.13202484419
69096.22899157701
69157.90109181074
69098.8333133689
68950.72530369303
68987.3873656354
68938.06726087705
68953.28218429827
69116.14400490903
69124.59418217825
69152.59089701323
69285.22467953255
69323.12220041914
69461.5762953844
69424.2718410685
69588.48871365654
69565.12953773882
69650.1725958112
69677.14006502337
69736.09726824718
69690.83572428535
69808.82828771454
69772.93505540595
69783.77328472403
69715.0471860574
69756.20144697525
69686.25853214778
69760.36540996266
69691.6216933034
69674.98412732613
69681.90669162948
69770.09988449323
69601.19915224415
69604.96424758562
69649.58258494554
69762.07357538595
69572.87217260702
69558.7243063168
69687.53846822378
69693.28676007385
69635.43537080799
69758.26555401763
69782.268375278
69699.86653585288
69751.26026326658
69772.89985064427
69851.61145817924
69865.19581136921
69802.86475024554
69901.45394670569
69936.08581054631
69931.46108835655
69914.16831436988
69947.356002731
69924.08131280947
69903.69613308801
69953.55425146576
69902.61494619348
69929.18223358829
69941.41604601606
69922.00733253028
69986.35401823722
69971.64785011119
69945.3639318015
70025.31425267772
69976.96592390563
70075.01214966268
70030.25645715716
69927.88890487955
69988.01437943256
70045.44567145173
69931.94284287475
69973.89456041221
69869.76999979619
69983.32068542282
69971.10201054129
69934.50737469326
69991.76661021974
69963.53767221406
69960.63253555495
69977.0706837044
69870.9591201618
69780.78984411509
69791.12356984366
69749.8293197804
69646.58758272453
69661.84249509482
69490.9541139066
69468.40878866923
69348.31219670092
69191.43955239347
69309.7081211143
69097.6036184052
69000.45644387686
69043.80555538036
68916.7380771555
68928.84929521802
68866.93387536972
68975.28884072954
68988.35636668837
69113.72427113273
69164.92638864295
69190.08840770858
69269.83965170073
69333.2769516321
69409.24001380101
69500.79657426587
69523.84692068439
69658.82479232961
69718.4492278519
69652.42049579632
69777.26918108277
69872.02446898399
69768.88821933065
69767.53351881955
69729.02068372407
69733.99600709172
69799.79121940151
69681.7890703429
69771.69467299756
69696.99732373942
69686.67858762787
69721.29170666606
69597.40902395989
69573.52073489263
69572.18825469611
69631.0195719417
69557.36299273776
69562.946380256
69617.84157973377
69683.13349635105
69661.10259007712
69666.20144092111
69760.52079268225
69773.86096004154
69717.12196598446
69799.62392870529
69786.498492058
69838.36388223487
69839.60805320628
69797.30803269753
69828.43028427022
69889.89767587844
69988.38563300823
69890.42983469006
69927.47722514239
70003.30415165257
69923.24764501052
70052.8777029586
70008.22538350555
69969.68779980589
69966.68957113675
69987.44308962487
70002.56902421858
70033.10849937984
70075.16556437121
69957.63219264668
69962.05471735606
70083.16085985141
70119.60234357798
69962.76980172397
70021.23437520216
70042.59973888898
70065.01458208937
70125.07242969869
70149.53575773138
69989.91529530371
70004.09432391798
70021.04973025832
69970.01717201289
69947.05864486584
70024.38377932794
70055.85603573122
69944.64125606902
69962.68724463614
69958.27873238908
69956.25870493735
69865.40437684681
70014.36881681319
70017.29186784782
69938.55152668257
69892.32151365654
69859.91991045605
69850.89107224159
69816.6977889634
69713.30824292684
69695.70396842844
69652.00097955742
69564.81391814972
69445.90849867316
69354.41679134576
69273.77836889807
69330.90173545077
69203.69687516509
69101.08548224569
69022.08895060286
68995.78333120696
69021.0125858531
68989.81096910973
69011.01304720252
68975.44602602805
68994.10781027406
69087.36546994749
69134.86059767826
69254.71854739072
69259.33988848813
69377.0824427661
69413.31971511318
69563.62093966914
69687.51779909294
69624.20918337799
69672.38179876364
69819.21626217646
69707.66674385704
69823.59700433316
69803.82880722666
69754.41155205884
69775.56556232573
69762.50800251457
69694.0649966127
69742.86459163678
69643.62247355265
69748.2631164895
69658.50907197919
69573.22705325202
69647.38404714473
69608.58102332865
69573.41160102657
69562.08072840217
69585.23012255489
69724.7614283922
69619.898386175
69717.65076115467
69711.7274257293
69690.29322605429
69694.77500033595
69756.67949435182
69740.4128291469
69780.80078624838
69749.03525516046
69799.00641548909
69786.52205121487
69946.27594188515
69871.7461811915
69901.81755106004
69904.18606510593
70036.25208611962
69946.16604298298
69945.0911793227
69957.63033984452
69888.91203825851
70044.99117445931
69990.28237173606
69930.56022540852
69971.9568125681
69999.50840022895
69944.07611265457
70025.4875266581
69984.29082298139
69964.38768811418
69975.9430976896
70002.84904413384
69948.61742937866
70017.34714101588
69957.85119002602
70017.36653411677
69921.41333298979
69884.99504493095
69999.67385160351
69997.12918024941
69967.26870552731
69980.69289571424
69954.31986905722
70049.77774093962
69977.41383555504
70108.95223675814
69996.96451410935
70065.03519519034
69990.66524977055
70125.45711891312
69958.36469580437
70004.43443198777
70011.61964366812
70035.34292769828
70013.76619941155
70046.12997731134
70050.38750841317
69981.17077723809
70015.84904527011
69912.35600448123
69991.45773680069
70047.55161428392
69917.23350389945
69902.34561682933
69911.63813466797
69794.12678825858
69756.65265549129
69815.12495156069
69715.71039255611
69660.44271157222
69541.32964630867
69445.94479973787
69337.34631854373
69332.61628406466
69173.79290956265
69106.61439228228
69029.74152574601
68949.08580517168
68985.26759673479
68874.4427578501
68967.17919234598
69069.13430639105
68949.57700996808
69072.25670446764
69127.01555786647
69108.3534117999
69318.01738428148
69316.38279109607
69432.29912150255
69501.27036820927
69526.97716437554
69610.4155737092
69745.59655659363
69673.67369703246
69827.97661778795
69799.38609211105
69841.50137280482
69837.30971953242
69879.64895265405
69752.65396668682
69723.64519991289
69720.43545654845
69798.14299547205
69541.21273561969
69639.78447142846
69704.47980711835
69773.38394954236
69633.47317288953
69633.82966688278
69657.15684345439
69551.22442429603
69564.45862815311
69633.25827728261
69611.42857148695
69650.43143885714
69678.5575772342
69700.5470865739
69754.14583223854
69727.44647565296
69825.09815667501
69772.91441725643
69875.3809952182
69922.65762773798
69881.29780575287
69866.31285847894
69928.14631902422
69891.53977377486
69906.78444860791
69946.10608114104
70035.8339657089
69933.62398960041
69965.37208487108
69947.19329097375
69918.89504563235
69999.53840024122
70063.06226193874
69958.58879612348
69982.74716964674
70004.74587547858
69964.88601268617
70062.11302664147
69964.40235628404
70061.56781080789
69877.92994731237
69973.21501166759
70006.18702496069
69978.80587047953
70003.16425784455
69985.66171273189
70046.55601700748
70010.16399110755
70060.76540056863
70080.42250390087
69969.87465323636
70037.35554164278
70141.47292072563
69982.23228837729
70028.61899075785
70017.75019036236
70011.53100778486
70052.94529449816
70010.11184059996
70075.33095211915
69973.23815827841
70103.6114834167
70084.30417373638
70061.74365979772
69974.02416602892
70071.6740042361
69963.82319028513
70006.4416716747
69899.87153178785
69940.04720082502
70011.77200427116
70061.11626869848
69932.18424520773
70006.98387533055
69969.80470532834
69941.40399896691
69979.28601991937
70004.9899256959
70045.49022257474
69951.40204296804
69902.17180982114
69929.90488709832
69937.7977939484
69958.2554719985
70042.52963713625
69881.06439232641
69859.53080485383
69835.81176090323
69823.15353268443
69758.2924216425
69752.27089632301
69613.89364497572
69424.3296025768
69453.0124541628
69352.10864223934
69302.71591877518
69132.55729524732
69132.95687476841
69046.7623809349
68911.05891746546
68979.22058619054
68913.82271544353
68916.83843080544
68977.11945737507
69093.63115133072
68979.83417865235
69160.10913950774
69179.74727297448
69357.20600989365
69275.82702354007
69482.94011796458
69536.90024230917
69568.18318376748
69659.94758788879
69709.60300334878
69801.4593584118
69682.24501032454
69692.72208644116
69751.19364112274
69745.48778512972
69729.27311496933
69863.5337664199
69906.58350558614
69719.47670089462
69680.16002082602
69668.29488472699
69717.4421760198
69663.97964110173
69660.61560004557
69591.67311590284
69635.44062910366
69610.813875247
69649.80731224426
69633.56690084259
69666.64422153149
69681.36285303406
69678.58335675398
69678.52360291914
69676.0280961543
69580.53192896345
69714.70527945895
69624.62330152182
69804.52207133148
69786.04389315778
69840.58776268605
69754.80617664913
69876.21852494242
69832.45722809895
69982.99442766151
69878.6258886723
69913.04001080024
69951.9009826007
70011.20189720794
70033.31106493485
70101.58408616281
70041.63864190201
70041.98946971637
69937.62170391982
69948.1966873286
69963.6680818001
69902.7916943611
70007.09930218483
70037.27810149394
69986.35362351261
70082.48311443956
69950.64572603715
69914.9734216792
69996.66087332828
70073.75303006207
70031.65676688313
69983.84882657959
70054.31983910117
69990.10775802769
69984.82133541348
70041.58165267023
69954.42251575098
70033.70287029281
70011.13893170973
69987.71487780513
69998.75806553382
70043.28818539013
70020.64288244638
69915.66370848728
70023.27521443808
69881.40397130825
69990.77773253541
69929.67392602557
69935.26066089218
