69.09405551194686,38.30790023710997,1
68.53798759641825,44.50552107003885,1
72.7618757717466,45.56137440140563,1
68.36645190954538,40.80832188510117,1
68.73648401026736,45.227684244791696,1
72.33365366555874,40.858918812969755,1
68.75175099891213,46.779848633540695,1
67.4149865215648,44.97404439309932,1
71.02602928310667,47.57122484623073,1
69.9684703002368,40.731120499743746,1
69.91600819440657,44.49648056682671,1
69.21917006915996,49.694735559289185,1
68.03569345602887,49.679661174499316,1
66.13271003824886,45.957318773755325,1
72.26655594326682,41.16423462093839,1
68.88496643569897,45.50946642095117,1
70.20807052136523,48.61361321941629,1
70.82399824300686,48.01987394803299,1
68.99309087178874,45.81833653390423,1
66.79992859260315,43.39046469553665,1
65.59640998502545,43.30860628865181,1
73.34744713070597,51.68764422200598,1
69.45408846130394,48.101346380561225,1
67.5898115321953,45.778208352868106,1
70.15474919090329,45.31990283890902,1
68.08549701108348,39.37187861900792,1
69.2044911983375,42.828837304644864,1
69.64954407491526,45.73434345857495,1
69.25697515011262,45.67783567118144,1
69.29569796930039,39.27727187790157,1
71.03855147361314,39.21968670977814,1
71.12561355641841,41.00317834993204,1
71.98158979426377,46.537579332504,1
67.60045106596917,45.362112925033266,1
67.82371936258308,43.98938231999549,1
69.89549435317761,48.703822752881216,1
70.51134779337613,44.53682523845182,1
71.01629638081175,46.40894094223166,1
69.58823631410897,48.80420712648981,1
70.66257043004518,35.72939909532312,1
68.21324806468598,45.86478342105233,1
67.43304331966048,45.52700612540168,1
67.52310551904861,41.70811619160346,1
68.29591719446134,48.103420509999225,1
67.85097314327669,50.1510354129042,1
69.06871888654955,43.65023053644403,1
69.53320474085184,53.50318332753557,1
70.70202419744142,44.32451496083604,1
71.59123020845385,43.61427762493731,1
69.20699463909395,48.54552472078175,1
72.45100389693653,42.73547908768009,1
67.42468135340765,48.45421266547627,1
69.77577339536133,39.98588677557443,1
70.90236943902171,52.361487677140275,1
67.30104183245659,44.62768542162681,1
70.80452061779786,45.42330803446392,1
72.19847096183544,45.16479705877488,1
73.06380873375583,46.943531190028274,1
68.64883808747045,39.3098154714638,1
70.31061692464017,38.4394291121914,1
71.29286292071743,42.2361673925473,1
73.45637291657897,41.93132200424943,1
66.87821913383742,40.69360472239769,1
70.69836812425405,44.76943311458727,1
67.79784026835944,36.92725035192813,1
68.61606692747414,50.3821543135215,1
69.86623610907395,43.85511829744138,1
70.76703960642652,46.483995276517376,1
75.63585142801134,44.64867662333005,1
69.69477642973976,48.71526154611418,1
72.53862310310268,50.90540619685468,1
68.55455895427326,45.73522196409649,1
69.20316795214906,41.12161149560251,1
71.46601677079957,46.46940910651972,1
68.8981152161367,46.821635357281586,1
72.07989751201822,38.414145146712656,1
68.84591562506407,50.30971696917475,1
72.00072599235811,38.192288054682976,1
70.25752540447121,43.96848275186123,1
71.72153004745874,45.68803536391171,1
73.67083249745194,44.881719153883246,1
67.13218850537434,42.00647559638506,1
72.08361069080911,48.315611127158235,1
70.42034948150825,46.37275465620841,1
71.26217251246145,48.01608492246279,1
69.38112627428785,47.798288167921356,1
71.87734195896815,47.084271023236425,1
69.30343935981107,47.930792841024385,1
72.44254106176305,43.44456240952212,1
72.18317828459554,38.30906625649213,1
69.40607038601975,45.39110471788717,1
71.08023586281713,43.43379670946198,1
72.81656773104083,50.734488962752934,1
69.90220564418661,44.4139193654789,1
69.72081416248888,42.375202227752744,1
71.17056462054991,52.07357660343775,1
73.64552620787617,43.04959532551345,1
74.67409348169116,48.84472188703234,1
65.15163296780773,47.85008544139902,1
71.21965694595958,45.52719594897735,1
67.96434613532433,48.44534942385506,1
64.72420969442592,44.036719583590546,1
69.70796369243156,45.14962742188274,1
69.81190380985784,47.261108229182064,1
69.51231657517181,41.84742097504858,1
69.64752150128157,40.12042916406839,1
69.36541916628195,46.32946984225339,1
69.35135656810236,39.87450026036271,1
71.53921249077122,48.04121210823555,1
71.12866893419128,48.464412408358896,1
70.34655000023643,44.629803253903496,1
68.3978772085277,48.691091987711125,1
69.68245499277332,44.18011908571079,1
69.70820528867694,42.47817925879434,1
69.87047084306174,34.117083346811626,1
69.0796903569909,41.599901126970465,1
70.55421952740315,35.85041289471128,1
66.4304596336567,44.09883090352399,1
66.713908139687,49.80621187494857,1
73.24572488266115,44.2667138909119,1
67.75238724498708,44.38080967754154,1
66.07376826938722,45.97254865482382,1
71.8516023070773,45.5376859283216,1
67.06888240995193,42.929554624198886,1
68.00931505366759,43.305849717002594,1
69.81200118766046,40.23944505027173,1
73.56593459865915,55.204106041619674,1
71.7140569396258,42.87054964012906,1
66.8478559311274,39.924264288000614,1
64.55099573978829,45.52848515857435,1
70.98027308053557,44.44351420676072,1
73.12226023618612,47.503027702387236,1
69.54870324735428,42.8427112966222,1
67.498013708141,49.089534771801816,1
68.6257035213142,42.673729213316726,1
73.25700775593977,49.25480369936915,1
67.28864447948816,37.42213460739999,1
65.90726314334768,40.07916609647664,1
69.28811566656515,43.02581552600144,1
69.03199364146393,45.44552176756873,1
69.14434692733273,45.31048025391334,1
69.937124137722,42.533536632815775,1
73.52987609925432,42.29578952647856,1
69.50206172201659,37.45209555804017,1
72.98589382142151,49.168019649781534,1
71.32905634872034,47.59706353634886,1
69.3270233745066,43.36220502209522,1
68.00898688915284,49.494910347582675,1
67.37291857291457,49.48595690524892,1
71.22241400639359,46.23461107390167,1
70.66105463735698,49.848470533726434,1
74.46163597860863,46.926864843821264,1
70.26989028615564,42.579192132210196,1
67.36448066039992,41.94445889311997,1
68.81590029702957,46.41660752251771,1
67.03060523901706,43.94333932349735,1
70.53859740496632,44.538031172952934,1
70.16688353457906,47.31207380772905,1
71.31593462683384,46.441263096763755,1
71.0488978880677,41.65157844435102,1
74.01777372111262,49.66688954089501,1
70.09657604070568,45.7828333708381,1
73.52525351271944,46.781313417329635,1
70.29689045363517,46.4862498466137,1
70.78836799099442,41.82928075437166,1
70.70122265341439,45.49295499605605,1
71.78795767080167,42.26944936582484,1
70.76957801054895,47.080889990654654,1
69.47716052953983,48.29977438318267,1
68.01474832614285,41.42466710231373,1
70.57505620256302,42.330565020873074,1
72.0698032683953,44.81814474381956,1
71.87285673281731,40.68210630953523,1
70.58833684628512,45.82847378504157,1
72.37435157392981,44.72342689312819,1
70.09381025285631,41.6856946686433,1
70.99476584909621,52.51476370233769,1
71.20143534583735,50.15668701738163,1
67.3672690022501,46.27014427497576,1
70.84984929359926,41.16352486226056,1
69.1735265702396,39.228243974866245,1
68.3695518890776,45.09926795702313,1
70.48575559366661,43.06169006904671,1
68.55070120774377,40.841039302915796,1
68.99415258620792,51.187946531163576,1
69.01156706412073,41.38167823828908,1
71.17262625992537,49.60104551476562,1
71.32111289650729,37.92851956996242,1
69.92974794841561,45.228229195767156,1
73.25583563993968,52.306664243316895,1
70.2810360887988,37.53681427427335,1
70.47552972274416,45.926671202041796,1
68.11227417273973,48.43433372130687,1
67.00596098940674,48.717743492515034,1
71.00654297510073,50.513338109251045,1
70.10873237219475,47.68439799518997,1
68.69610011933351,37.517893429029634,1
69.67791430592206,44.01434963216526,1
70.22909327994071,52.31828640763768,1
69.89911193248469,46.00302805524152,1
71.42475852479377,44.9948546583547,1
69.05701325015265,51.3891552758121,1
71.31101046368377,49.521925317118324,1
72.28025346946927,40.09144226681734,1
71.94660058411348,37.184156227073416,1
70.00730493798699,44.21100416643577,1
72.96443054972282,36.31006977900516,1
76.32600917167188,39.813049606242245,1
74.2960501610024,36.2091338186727,1
74.06795738672102,47.374547215503775,1
77.64884833569214,44.842701876742105,1
73.94463756641817,43.623657243595325,1
72.12153799968132,35.51040089787129,1
75.33389796447064,36.13515639678334,1
74.1179414160666,42.73679410460601,1
76.70058934588339,41.26920176390515,1
75.47394379351609,41.2126052968414,1
75.59425413900472,32.36736518961011,1
80.60865947189221,37.47576503550055,1
80.09194923586168,32.020489427257814,1
80.0161647276866,31.399742451672136,1
79.23317255120772,32.278422552314275,1
78.8851402794969,40.66748662595531,1
81.00707902263278,31.695392484984623,1
79.15593363942324,36.13854681110539,1
80.88243175327567,38.00377551371405,1
83.54271882215733,33.26477893526928,1
80.97791747071214,32.67054941041583,1
82.22553643688691,26.796708778049954,1
82.65975081790698,34.36836375626701,1
80.2092155431603,35.8118968610514,1
85.43197755478019,31.146870497414643,1
84.25269722775221,31.51193604949281,1
83.77863376452977,31.7730121956549,1
88.89012464202311,37.12328806538945,1
87.25631362154476,33.76462515789731,1
86.21296796280359,31.971440258857648,1
83.90098838912523,30.807570015263327,1
86.9298940384058,26.97242406509461,1
83.72181865343954,34.57393874520368,1
89.69818775096857,25.109223388247166,1
84.13854292409444,28.97434921701503,1
89.99658286429951,27.578992438009436,1
87.1235811477118,30.164293231560475,1
84.57548159783094,25.373010990846257,1
88.10589017769074,26.008431404844934,1
87.24748917332404,27.508020491188656,1
88.13652700094885,24.855822358324897,1
88.4046720796256,30.571472855288498,1
88.99229604283224,24.8225651263426,1
92.65243908553458,28.195488331004924,1
91.11674595783408,28.755165510496496,1
90.4613698086798,27.759474854239063,1
87.88169192872475,15.922630057669021,1
92.45657064672866,22.749618567242756,1
95.84838652835339,23.404228901548116,1
91.99538655494379,29.76758619012737,1
93.15235905221776,30.295867892639812,1
90.89553107893029,29.20242995022922,1
95.1403563803022,22.624869857935128,1
92.26484431118485,15.508590726937165,1
94.96259944977717,24.004878981719514,1
94.28212225453414,19.232890358420406,1
93.96028670235775,16.76531890085557,1
95.30544351033403,25.178739998014898,1
94.45740119441587,26.893262524031826,1
93.1543371470203,17.818493136998946,1
95.43781594000518,20.446886609832426,1
94.62845750958621,19.105756411677106,1
91.46094670628695,10.103771030710519,1
92.53942935684401,20.80688298925866,1
95.5715189346831,13.504571294770699,1
93.5079301255742,19.76787467060562,1
87.32440734140572,22.173666782054816,1
97.70105588354254,26.45137210744356,1
94.90333013514623,21.093962551119013,1
95.48646140501852,19.90988452335224,1
94.87360195949682,20.300831487420197,1
95.96011607906522,23.87524727929275,1
93.27508362580295,6.052106064405876,1
94.33931853551628,21.948783820080784,1
91.19368621982295,21.672114680458115,1
97.44411830641563,15.688728907216841,1
95.27239842763663,23.447514586594032,1
91.61759196123528,23.092997560264713,1
95.20865359365396,13.063392367648,1
92.16547758310483,19.239782320822748,1
94.14493695510589,18.727810057720248,1
94.95963349898803,18.92453807731075,1
96.77086692532559,11.231177407906877,1
92.71828254299766,17.66561658411971,1
94.37401212294667,20.18935746988158,1
95.27058044626665,17.01002304674264,1
96.05649630404443,19.790938295181377,1
95.96553837502842,19.564035217933714,1
96.00294021122033,17.812476854499415,1
95.05119354801695,14.123879866928142,1
95.90558414791568,20.482313911695385,1
94.02506405668501,22.887731866955754,1
95.66374329250428,24.194399457058346,1
91.25854351837346,24.004504267644997,1
96.26648238993683,15.066126586524149,1
96.07261616145925,21.668095930163,1
96.81700881847858,13.977616057781283,1
95.27121699528342,19.338142768856322,1
93.5654989503595,24.771106916202726,1
95.22218994563372,16.014833473704755,1
98.98356023219628,16.10564576827793,1
95.7313573569869,15.83551688303644,1
91.78641982929456,14.946576077643094,1
95.0408684844587,22.87122926231539,1
93.16038685932142,10.239151122502946,1
93.50189621516724,18.812546105905774,1
93.92622424133576,23.726165291014503,1
98.12250407447071,17.081921810165554,1
94.47655529588314,26.130678824699288,1
94.9651299273208,26.288573404238242,1
96.0483619699605,18.225307653076307,1
96.21906043031929,23.739795422748905,1
95.45376355221359,26.66027298468307,1
98.66977056133169,27.483066808941075,1
97.25509878425606,19.82042159918884,1
95.32697334147514,19.894333650376097,1
93.50698024228785,21.768765768428032,1
97.14535182909829,18.434542142588654,1
97.54169116546329,18.24493325095247,1
97.83698856453502,18.20732339181218,1
94.93671701385213,20.68817482050219,1
94.05484797969801,27.65656123928425,1
91.9724816522274,20.754801779087202,1
95.60030888792761,16.504386102409462,1
93.72829292225451,24.5036654224849,1
97.5791759058833,19.155049611865387,1
94.72313685936508,23.168480032498707,1
92.29219516543615,17.438557375889424,1
99.11976573043843,21.764811521717228,1
92.29039070364091,18.59139912949035,1
92.07264434623904,20.522201477288306,1
93.01683928416979,15.184741489749385,1
96.80505308987466,22.751232873876837,1
96.98306949589069,24.63832703359398,1
95.05869599210565,18.248576258060638,1
96.54238561079973,18.19386141759577,1
94.74923351504141,25.50622141384666,1
96.67304383380974,7.569919160001888,1
94.59126207381574,29.508501465858785,1
96.45732198127476,22.879975115640605,1
94.25630277147476,21.19790612398065,1
95.96761214421996,18.899597214395513,1
92.55306566658672,24.506719227419467,1
95.46560661489686,20.17900190610498,1
95.06510985276333,19.121455186292224,1
92.22298840308923,22.12023800718645,1
93.27754995933248,19.56384397314732,1
95.76904010425147,19.378125524444826,1
97.33954635187501,16.298313150617417,1
94.57611390092833,16.303991077731368,1
98.17086233865682,11.945081605303727,1
93.53567701722349,16.547290826234203,1
93.67139909305723,17.639389472084815,1
91.91195125954384,20.273154356747916,1
94.90868535660478,20.814759220920045,1
94.96259275314108,21.314429675570487,1
92.90064820713847,16.520949682320598,1
95.84440901191195,23.510553330629783,1
93.12415850381404,24.08942596249156,1
96.47127204202448,22.29291405529227,1
94.02232589309705,12.952093281272923,1
95.49668082240483,21.34576797046681,1
92.76738739982939,9.820912048915638,1
97.98178564989813,17.57734958498999,1
96.04844880618117,21.095955041615838,1
90.86144773132077,19.00223909077409,1
94.60021928244974,18.90425795175109,1
96.3581014498635,16.121916414692436,1
99.34671006029886,19.72483819883915,1
95.0778755576411,22.459663313382002,1
96.75694016558566,21.01006153863888,1
94.40794311444118,20.450019386442285,1
97.48124173998222,18.379608651554847,1
91.67641111664904,16.603937978494272,1
94.50115966846768,21.477614430087726,1
94.98601277181322,18.090045064569374,1
94.26186884237998,20.648417516586484,1
96.25440320543272,14.392601492164829,1
92.30733590182544,19.892940137081425,1
96.46593953595838,16.420852639815976,1
94.56238070105603,24.72119217305933,1
93.33859891561303,19.666584657888222,1
93.34266369194333,20.2884327842959,1
92.69957852386153,20.109734734319765,1
93.98954694228249,19.98663435047593,1
95.52341546171101,24.404226958577,1
97.62924325475763,23.092123773877013,1
93.43529310010634,18.900571845490454,1
93.04154733973145,11.27483519284035,1
94.43968308085334,27.48088161449507,1
92.00657298777801,22.68611375569475,1
96.05933776617091,22.349962237053198,1
93.09053584900373,26.253329774985822,1
65.8904368704112,44.017891417922606,1
69.81088496687492,35.10839569120357,1
71.04237531658032,41.60256597854573,1
70.7354070493991,41.30934870664749,1
71.66645303861269,46.9261315305686,1
70.15509868182977,47.26711823350715,1
70.59381642606685,40.66081152707573,1
70.2601265249351,48.141117945212905,1
70.61539132865221,45.85959993894723,1
70.59101326164473,49.34467120430302,1
70.80351767466237,43.60758310950188,1
65.08545867663538,42.71288812019546,1
67.77166568337567,46.681388404933614,1
66.53985765097273,45.160213933929015,1
70.5743875002107,41.06566915563889,1
70.228976316358,38.500272180713765,1
70.08645031417893,43.7875720355659,1
67.53453650922751,48.67459155387017,1
72.17390368280182,46.65118797183235,1
66.89908258521592,46.715439205603,1
70.47356348892237,42.45918540635082,1
70.69409518591415,46.75611165879577,1
70.93008133695852,40.88592667510197,1
71.43673349056488,51.18842200801227,1
71.67857979268193,38.637757135447856,1
69.3260528696794,42.435570480914755,1
67.87466704085557,45.76414359461086,1
68.62939146382062,49.94150510915076,1
69.68651631227354,39.79212916003067,1
66.82710688582685,45.872102767350356,1
66.97718695749853,33.68992618364085,1
69.84971200748231,45.6230356784805,1
68.93714297092974,43.07276336379699,1
70.09068125077245,45.49629443155355,1
69.71902229036384,47.913620957457695,1
71.56344655362285,41.48609956094425,1
70.18418310277836,44.77597059568053,1
69.02303230731094,38.600393585513416,1
68.18949105494549,40.32207702241034,1
70.43290900792039,46.72142621968373,1
69.35373309757793,40.33903486886781,1
68.24867072129514,40.33396242990489,1
70.02542403676158,38.78063561762024,1
68.77349079071968,48.27352417774635,1
70.0243338133655,40.32929992437526,1
69.1305639437256,40.97920147187679,1
71.02931322217347,45.96199759242546,1
68.25912614013541,45.49255211228322,1
69.42019130775014,55.07733245433081,1
71.67815737039228,36.40812741053857,1
69.820708009569,41.3570538753287,1
74.30302424061466,46.29904274292552,1
66.35533986655345,43.12797601116887,1
70.25648735263671,39.50434696320755,1
66.61650494392639,48.75288757345636,1
68.07164740273029,45.606104591715486,1
69.97162136236734,42.28558018304411,1
72.30716835484691,45.33692131631433,1
72.14003142980731,42.24112251967658,1
66.52337930088163,39.76887535860824,1
69.34476796734165,46.67584277018772,1
69.78861844145854,45.633115560058755,1
70.79634162674513,46.37846803210757,1
71.95255044812706,36.617433369210644,1
68.4049327093856,41.33334193977566,1
68.15886054761688,47.51838228958289,1
66.51299551974469,47.83656676535949,1
70.72443879157888,42.83462445615876,1
71.58057977910644,42.48995555856011,1
67.42759646235686,45.14171339353351,1
69.23206700907213,51.25429539806376,1
69.38833366089875,48.725019059742884,1
70.31815374098454,51.63145631894961,1
70.98358071131098,52.15642381748262,1
67.74901029671001,42.52155168590968,1
70.06433609264417,42.64646134239635,1
70.38987929298614,45.676576600789474,1
70.13652790446949,48.552318268046015,1
68.44767959081679,43.194229802741404,1
72.88753535932717,48.88827453206711,1
72.1711686950226,37.86766139169846,1
68.78389703008564,43.178977803187735,1
68.77591618048693,50.43748629491554,1
70.15942607553032,50.04967382404125,1
72.1046634341273,44.66634099115781,1
70.42335901642667,50.15901424111495,1
70.36672154532413,43.63717116512197,1
70.25996465804278,43.95287803535446,1
69.29389393274795,47.220285599212076,1
72.96438509919224,42.60958778655973,1
75.11293465672247,39.00918302903437,1
68.4254857483779,44.24590147525177,1
70.01115444828503,50.62769023966929,1
69.27957212320626,46.98832828138171,1
69.10428533613724,47.284943011162646,1
69.71853066293839,45.54254511394106,1
73.32146313645677,45.81444445309701,1
68.39702544127739,49.40347941506416,1
69.48570581391309,51.65438874431256,1
68.4406114654588,35.43933731041881,1
70.01077974534114,46.50921927146495,1
72.0767548301146,47.03113551282643,1
68.82562120031241,52.700540454671454,1
72.76109990301612,41.014418238920875,1
72.97519430574597,47.6882271670738,1
71.95501880905991,39.39102765471145,1
71.21183120539312,44.78545222409678,1
72.30199656759655,38.71985182041588,1
73.37486905199441,45.54325771443388,1
69.36018554059848,46.029571161416385,1
69.13708506670592,44.87619528629278,1
69.91632005407418,46.97903032720921,1
66.97110527171589,44.499478649686445,1
72.04621442609707,42.75023528587991,1
66.65739164083769,48.93613602066408,1
68.50004197109071,38.82512287154153,1
68.89996874748361,45.76412885962245,1
70.51465792865496,50.64588909898272,1
69.59981018145544,48.45316027082959,1
73.97590348556541,40.95637348202487,1
70.68017045723641,44.84458585743944,1
72.34103987763974,44.06135476404854,1
73.9957209156465,48.17034982996679,1
67.84732921885973,47.19170055562968,1
68.92934149405362,41.3702420329752,1
74.2949781564707,46.33541499537631,1
69.90432918419236,43.78910309616441,1
67.86911897951128,47.81908090480584,1
71.43854052275911,40.91728788216372,1
68.480874261628,50.9817131680637,1
71.28325686136564,44.176131214100955,1
65.05845388453635,42.5754212748739,1
70.35949665493425,47.68016765117673,1
68.7218824749612,43.71391081553201,1
70.13484759901152,44.69384152577403,1
68.83748386300915,44.14295339987017,1
72.28138501074754,42.49665597023821,1
67.0196915193098,44.74954834905616,1
71.54815673475966,37.647765373810024,1
68.99814694071878,44.56907067949243,1
67.11740521721882,47.338172620881956,1
71.90120205317737,42.01765458991978,1
71.59931824516076,44.42566008535368,1
70.06556239805168,44.371634028629856,1
69.44578522613753,48.11614333767058,1
69.83390171288525,43.317169970925455,1
68.45935154585088,42.081705746188305,1
72.18849317995576,44.27124852469724,1
72.0858448709851,49.471494559478536,1
68.57954674089,47.37450221797197,1
72.55433222072958,44.61761784271574,1
72.76527867887211,47.20874264718289,1
70.08055981491177,48.5892282801093,1
70.0227561387435,45.00801477839415,1
72.02580377339463,48.85157601176244,1
74.7336509626067,49.66669980983283,1
70.17627383288492,48.06301740506156,1
70.7431980088465,38.9627192015749,1
70.74979160172848,42.925492089189596,1
69.07394727417781,43.78421800917701,1
69.53543680149194,41.197821429403916,1
69.88360537987805,48.115798961848576,1
68.75415671343526,47.70400351813895,1
66.29169681342069,42.63397068403047,1
71.87718604624797,44.4310340432573,1
75.78161468530864,49.35569505895741,1
68.54479315936138,46.27799645761862,1
71.13088548907277,42.66211541442772,1
67.70899113460798,48.68881518693759,1
72.96218796184314,50.81058378908573,1
73.15879010836285,47.054092938647685,1
70.38927017132943,45.961227448285996,1
69.37508157372464,37.44050123028631,1
72.18840671224467,50.408696844941,1
70.4793476895209,46.184764067982705,1
69.39865157998045,47.57517615084687,1
66.94524011695198,47.7635523815568,1
66.80405035359348,45.61606831909838,1
65.28277518272597,40.153631545322106,1
73.70839535038048,43.89949777210848,1
70.54308515545831,44.88036198542263,1
70.9766339001205,40.85696154020732,1
73.50683805798599,55.74852882675828,1
72.37282554581677,48.46946347359557,1
71.2665737253469,49.51087975416239,1
73.09342302715781,49.6344104378628,1
66.8641461462651,47.694602215969056,1
70.22855919778128,38.30753330253922,1
71.35131959233102,49.69698338197778,1
71.25161364635504,43.24369468594537,1
70.36131378833538,41.93573663259121,1
70.25720187626645,41.38108408936649,1
72.01701801714768,44.43370071888896,1
69.48178513926732,46.98746046461634,1
72.63334203994994,40.22005351930927,1
69.85061597296873,41.95809620321898,1
71.77697125992673,41.290898758429044,1
68.03317818643077,47.733311863818145,1
69.28294100255269,47.4743959157458,1
69.88607336814478,48.45595994940525,1
